tempo_arduino_ms,valor_ADC
1,350
2,353
3,355
4,355
5,352
6,352
7,352
8,355
9,351
10,347
11,343
12,338
13,333
14,333
15,333
16,343
17,348
18,352
19,354
20,355
21,354
22,354
23,354
24,357
25,354
26,350
27,345
28,340
29,335
30,335
31,339
32,342
33,348
34,355
35,359
36,361
37,360
38,360
39,359
40,359
41,357
43,351
44,345
45,339
46,339
47,339
48,328
49,335
50,341
51,347
52,351
53,354
54,355
55,354
56,355
57,359
58,358
59,354
60,350
61,344
62,338
63,338
64,338
65,338
66,338
67,345
68,350
69,353
70,354
71,353
72,354
73,356
74,358
75,354
76,350
77,345
78,340
79,340
80,331
81,333
82,340
83,345
84,349
86,352
87,354
88,353
89,353
90,354
91,354
92,355
93,351
94,347
95,347
96,335
97,335
98,332
99,332
100,344
101,348
102,351
103,354
104,353
105,352
106,352
107,357
108,356
109,352
110,348
111,348
112,348
113,332
114,332
115,332
116,343
117,348
118,352
119,353
120,354
121,354
122,351
123,355
124,355
125,352
126,348
128,343
129,338
130,332
131,332
132,332
133,342
134,347
135,352
136,355
137,356
138,355
139,354
140,354
141,357
142,353
143,349
144,344
145,339
146,339
147,331
148,333
149,333
150,345
151,351
152,355
153,356
154,356
155,355
156,355
157,358
158,355
159,351
160,346
161,341
162,341
163,341
164,330
165,336
166,342
167,348
168,353
169,355
171,356
172,355
173,355
174,355
175,358
176,353
177,349
178,344
179,337
180,334
181,331
182,331
183,331
184,346
185,349
186,352
187,353
188,351
189,353
190,355
191,357
192,355
193,352
194,347
195,342
196,336
197,334
198,334
199,342
200,347
201,352
202,355
203,356
204,355
205,354
206,354
207,354
208,355
209,350
210,345
211,340
212,334
214,334
215,334
216,337
217,344
218,349
219,352
220,355
221,355
222,353
223,353
224,358
225,356
226,352
227,347
228,342
229,336
230,331
231,331
232,337
233,343
234,349
235,353
236,355
237,356
238,356
239,354
240,356
241,356
242,352
243,348
244,343
245,337
246,332
247,332
248,336
249,342
250,348
251,354
252,357
253,358
254,356
256,355
257,357
258,358
259,354
260,349
261,344
262,338
263,338
264,338
265,332
266,332
267,346
268,351
269,354
270,357
271,356
272,356
273,356
274,356
275,356
276,352
277,347
278,341
279,335
280,331
281,331
282,331
283,342
284,346
285,348
286,350
287,350
288,349
289,349
290,353
291,354
292,351
293,348
294,348
295,348
296,335
297,335
299,340
300,345
301,350
302,354
303,356
304,356
305,355
306,353
307,354
308,355
309,352
310,347
311,343
312,338
313,338
314,331
315,335
316,342
317,347
318,352
319,354
320,355
321,353
322,352
323,352
324,356
325,352
326,348
327,343
328,338
329,338
330,330
331,330
332,340
333,346
334,352
335,355
336,356
337,356
338,355
339,355
340,358
342,355
343,350
344,346
345,340
346,335
347,330
348,330
349,336
350,343
351,348
352,352
353,355
354,355
355,354
356,354
357,360
358,358
359,353
360,349
361,344
362,338
363,338
364,331
365,335
366,341
367,345
368,348
369,350
370,350
371,349
372,349
373,352
374,355
375,353
376,350
377,346
378,342
379,342
380,335
381,338
382,344
384,348
385,352
386,354
387,354
388,351
389,350
390,351
391,353
392,351
393,348
394,343
395,340
396,335
397,332
398,334
399,341
400,347
401,352
402,354
403,355
404,354
405,352
406,351
407,354
408,353
409,349
410,345
411,345
412,345
413,345
414,330
415,330
416,345
417,348
418,352
419,353
420,353
421,351
422,353
423,353
424,354
425,351
427,348
428,343
429,338
430,338
431,338
432,338
433,343
434,348
435,352
436,353
437,353
438,351
439,351
440,351
441,355
442,351
443,347
444,344
445,344
446,344
447,332
448,332
449,342
450,347
451,349
452,351
453,350
454,348
455,348
456,348
457,351
458,351
459,348
460,345
461,345
462,345
463,345
464,345
465,343
466,348
467,350
468,352
470,352
471,349
472,349
473,349
474,350
475,350
476,347
477,344
478,341
479,337
480,333
481,338
482,338
483,338
484,352
485,354
486,355
487,353
488,350
489,349
490,351
491,352
492,349
493,345
494,341
495,337
496,337
497,337
498,336
499,345
500,349
501,351
502,352
503,351
504,349
505,347
506,347
507,347
508,349
509,346
510,343
512,339
513,337
514,335
515,337
516,337
517,351
518,354
519,355
520,355
521,353
522,353
523,350
524,350
525,349
526,345
527,342
528,337
529,337
530,337
531,332
532,340
533,348
534,352
535,355
536,356
537,355
538,355
539,351
540,352
541,352
542,348
543,344
544,340
545,340
546,340
547,331
548,336
549,344
550,349
551,353
552,355
553,355
555,352
556,351
557,353
558,355
559,351
560,347
561,343
562,338
563,338
564,338
565,335
566,335
567,348
568,351
569,353
570,353
571,350
572,350
573,350
574,353
575,351
576,348
577,344
578,340
579,340
580,340
581,340
582,341
583,347
584,351
585,352
586,352
587,350
588,348
589,348
590,352
591,351
592,348
593,345
594,340
595,337
596,333
598,335
599,335
600,335
601,352
602,354
603,355
604,354
605,351
606,351
607,352
608,353
609,349
610,345
611,340
612,336
613,332
614,331
615,335
616,344
617,347
618,350
619,351
620,351
621,349
622,349
623,349
624,349
625,350
626,348
627,344
628,340
629,340
630,337
631,337
632,344
633,350
634,353
635,354
636,354
637,352
638,352
640,352
641,353
642,351
643,347
644,343
645,339
646,339
647,332
648,334
649,341
650,348
651,352
652,354
653,354
654,352
655,352
656,350
657,350
658,352
659,348
660,345
661,341
662,336
663,336
664,336
665,336
666,346
667,350
668,351
669,352
670,351
671,348
672,347
673,347
674,351
675,349
676,346
677,342
678,339
679,339
680,334
681,338
683,346
684,351
685,354
686,354
687,353
688,351
689,349
690,349
691,352
692,350
693,347
694,343
695,339
696,335
697,335
698,334
699,343
700,347
701,349
702,350
703,349
704,347
705,348
706,345
707,345
708,349
709,347
710,345
711,345
712,345
713,345
714,345
715,344
716,351
717,353
718,355
719,354
720,352
721,349
722,348
723,349
724,350
726,347
727,343
728,340
729,340
730,340
731,332
732,338
733,346
734,351
735,354
736,355
737,354
738,351
739,350
740,351
741,352
742,350
743,346
744,342
745,338
746,338
747,332
748,332
749,332
750,348
751,351
752,353
753,353
754,351
755,350
756,351
757,353
758,352
759,349
760,345
761,341
762,341
763,341
764,333
765,333
766,348
768,352
769,354
770,355
771,354
772,351
773,351
774,354
775,353
776,349
777,345
778,341
779,341
780,332
781,332
782,337
783,337
784,348
785,351
786,351
787,351
788,349
789,349
790,349
791,353
792,350
793,346
794,343
795,339
796,339
797,333
798,333
799,344
800,348
801,351
802,352
803,351
804,349
805,348
806,348
807,348
808,350
809,347
811,345
812,340
813,336
814,336
815,336
816,344
817,349
818,351
819,353
820,353
821,351
822,349
823,349
824,349
825,351
826,348
827,345
828,342
829,342
830,333
831,334
832,340
833,348
834,349
835,350
836,350
837,348
838,348
839,348
840,349
841,350
842,349
843,346
844,343
845,340
846,340
847,335
848,339
849,347
850,350
851,352
852,353
854,352
855,349
856,349
857,349
858,352
859,349
860,346
861,343
862,339
863,335
864,335
865,336
866,343
867,349
868,352
869,354
870,353
871,351
872,349
873,350
874,352
875,350
876,348
877,344
878,340
879,340
880,333
881,333
882,341
883,348
884,351
885,353
886,353
887,352
888,350
889,350
890,350
891,352
892,348
893,345
894,341
896,337
897,333
898,333
899,339
900,339
901,349
902,352
903,353
904,351
905,349
906,349
907,351
908,353
909,350
910,347
911,343
912,339
913,339
914,334
915,334
916,344
917,348
918,350
919,350
920,349
921,347
922,346
923,347
924,351
925,349
926,346
927,343
928,340
929,340
930,334
931,335
932,335
933,349
934,352
935,354
936,355
937,353
939,350
940,351
941,353
942,351
943,348
944,343
945,340
946,340
947,340
948,340
949,339
950,347
951,350
952,352
953,352
954,352
955,349
956,350
957,352
958,353
959,350
960,347
961,342
962,338
963,338
964,333
965,333
966,346
967,349
968,351
969,351
970,350
971,348
972,348
973,350
974,352
975,349
976,346
977,343
978,340
979,336
980,334
982,334
983,345
984,349
985,351
986,352
987,351
988,348
989,348
990,348
991,355
992,350
993,347
994,344
995,341
996,341
997,335
998,335
999,344
1000,350
1001,352
1002,353
1003,353
1004,350
1005,348
1006,348
1007,348
1008,350
1009,346
1010,343
1011,343
1012,343
1013,343
1014,343
1015,340
1016,348
1017,351
1018,353
1019,353
1020,352
1021,349
1022,349
1024,349
1025,351
1026,348
1027,344
1028,341
1029,337
1030,333
1031,333
1032,337
1033,345
1034,348
1035,350
1036,350
1037,349
1038,346
1039,344
1040,347
1041,347
1042,348
1043,345
1044,342
1045,339
1046,339
1047,339
1048,339
1049,339
1050,350
1051,352
1052,352
1053,350
1054,348
1055,348
1056,348
1057,348
1058,348
1059,346
1060,343
1061,339
1062,339
1063,334
1064,335
1065,343
1067,349
1068,352
1069,354
1070,353
1071,352
1072,351
1073,348
1074,348
1075,351
1076,347
1077,344
1078,341
1079,337
1080,337
1081,337
1082,337
1083,337
1084,350
1085,353
1086,354
1087,352
1088,350
1089,348
1090,349
1091,352
1092,348
1093,345
1094,341
1095,337
1096,333
1097,332
1098,336
1099,344
1100,349
1101,353
1102,354
1103,355
1104,352
1105,352
1106,352
1107,354
1108,351
1110,347
1111,342
1112,338
1113,333
1114,333
1115,333
1116,340
1117,346
1118,348
1119,350
1120,350
1121,349
1122,348
1123,349
1124,352
1125,353
1126,350
1127,347
1128,347
1129,339
1130,339
1131,339
1132,339
1133,347
1134,351
1135,353
1136,354
1137,353
1138,350
1139,350
1140,351
1141,352
1142,349
1143,346
1144,342
1145,342
1146,333
1147,332
1148,332
1149,343
1150,346
1152,349
1153,349
1154,349
1155,347
1156,346
1157,346
1158,351
1159,348
1160,345
1161,342
1162,338
1163,335
1164,335
1165,335
1166,346
1167,350
1168,352
1169,353
1170,352
1171,349
1172,348
1173,348
1174,348
1175,348
1176,345
1177,342
1178,342
1179,342
1180,342
1181,335
1182,342
1183,350
1184,353
1185,355
1186,355
1187,353
1188,350
1189,350
1190,352
1191,351
1192,347
1193,343
1195,340
1196,335
1197,335
1198,332
1199,337
1200,337
1201,351
1202,354
1203,356
1204,356
1205,353
1206,353
1207,355
1208,355
1209,351
1210,346
1211,341
1212,337
1213,331
1214,331
1215,333
1216,341
1217,346
1218,350
1219,352
1220,353
1221,352
1222,351
1223,353
1224,355
1225,353
1226,350
1227,346
1228,342
1229,336
1230,333
1231,334
1232,341
1233,345
1234,347
1235,348
1236,347
1238,346
1239,344
1240,346
1241,350
1242,349
1243,348
1244,346
1245,346
1246,346
1247,346
1248,342
1249,342
1250,350
1251,351
1252,352
1253,351
1254,349
1255,349
1256,345
1257,346
1258,348
1259,345
1260,343
1261,340
1262,337
1263,337
1264,334
1265,334
1266,347
1267,351
1268,354
1269,355
1270,354
1271,351
1272,349
1273,350
1274,352
1275,348
1276,345
1277,341
1278,336
1280,336
1281,332
1282,335
1283,342
1284,347
1285,350
1286,353
1287,352
1288,351
1289,349
1290,350
1291,353
1292,351
1293,347
1294,343
1295,340
1296,335
1297,335
1298,335
1299,335
1300,347
1301,350
1302,352
1303,353
1304,351
1305,349
1306,349
1307,352
1308,351
1309,348
1310,345
1311,345
1312,337
1313,337
1314,337
1315,338
1316,345
1317,348
1318,349
1319,350
1320,350
1321,347
1323,347
1324,347
1325,352
1326,349
1327,347
1328,343
1329,340
1330,340
1331,334
1332,338
1333,344
1334,347
1335,350
1336,350
1337,349
1338,347
1339,346
1340,346
1341,346
1342,349
1343,347
1344,344
1345,340
1346,340
1347,335
1348,335
1349,344
1350,347
1351,350
1352,352
1353,351
1354,350
1355,350
1356,350
1357,350
1358,350
1359,347
1360,344
1361,340
1362,340
1363,333
1364,333
1366,340
1367,346
1368,348
1369,350
1370,350
1371,349
1372,346
1373,346
1374,348
1375,350
1376,347
1377,345
1378,342
1379,338
1380,338
1381,334
1382,334
1383,334
1384,348
1385,349
1386,350
1387,349
1388,346
1389,347
1390,348
1391,351
1392,349
1393,347
1394,344
1395,341
1396,341
1397,341
1398,337
1399,342
1400,346
1401,347
1402,347
1403,346
1404,344
1405,342
1406,344
1408,344
1409,349
1410,348
1411,347
1412,345
1413,341
1414,341
1415,341
1416,343
1417,347
1418,348
1419,347
1420,346
1421,344
1422,344
1423,344
1424,346
1425,346
1426,345
1427,345
1428,343
1429,343
1430,343
1431,343
1432,340
1433,346
1434,348
1435,350
1436,350
1437,348
1438,347
1439,347
1440,348
1441,349
1442,347
1443,345
1444,343
1445,339
1446,334
1447,334
1448,334
1449,342
1451,345
1452,347
1453,347
1454,347
1455,345
1456,345
1457,345
1458,351
1459,350
1460,348
1461,347
1462,343
1463,343
1464,336
1465,336
1466,341
1467,345
1468,345
1469,346
1470,345
1471,344
1472,344
1473,344
1474,347
1475,348
1476,347
1477,345
1478,343
1479,343
1480,337
1481,337
1482,337
1483,345
1484,347
1485,348
1486,348
1487,345
1488,344
1489,343
1490,343
1491,348
1492,348
1494,346
1495,344
1496,341
1497,341
1498,341
1499,341
1500,341
1501,346
1502,347
1503,346
1504,345
1505,342
1506,341
1507,341
1508,346
1509,347
1510,346
1511,344
1512,342
1513,342
1514,337
1515,339
1516,344
1517,347
1518,349
1519,349
1520,348
1521,346
1522,344
1523,345
1524,348
1525,347
1526,346
1527,345
1528,342
1529,342
1530,336
1531,335
1532,340
1533,345
1534,346
1536,347
1537,347
1538,346
1539,344
1540,344
1541,344
1542,348
1543,347
1544,346
1545,343
1546,339
1547,339
1548,339
1549,339
1550,344
1551,346
1552,348
1553,348
1554,347
1555,347
1556,347
1557,347
1558,348
1559,347
1560,345
1561,344
1562,340
1563,336
1564,336
1565,336
1566,341
1567,345
1568,347
1569,348
1570,347
1571,346
1572,345
1573,345
1574,348
1575,348
1576,347
1577,345
1579,342
1580,338
1581,335
1582,335
1583,339
1584,342
1585,343
1586,344
1587,344
1588,343
1589,343
1590,343
1591,343
1592,349
1593,349
1594,348
1595,346
1596,342
1597,339
1598,337
1599,337
1600,343
1601,343
1602,342
1603,340
1604,339
1605,339
1606,339
1607,341
1608,344
1609,345
1610,346
1611,346
1612,344
1613,341
1614,339
1615,339
1616,346
1617,347
1618,348
1619,347
1620,345
1622,343
1623,340
1624,340
1625,344
1626,344
1627,343
1628,341
1629,339
1630,337
1631,335
1632,335
1633,341
1634,344
1635,347
1636,348
1637,347
1638,346
1639,344
1640,344
1641,351
1642,347
1643,347
1644,345
1645,342
1646,342
1647,335
1648,335
1649,337
1650,340
1651,342
1652,343
1653,344
1654,343
1655,342
1656,342
1657,346
1658,348
1659,348
1660,347
1661,346
1662,346
1664,339
1665,339
1666,339
1667,341
1668,342
1669,343
1670,344
1671,342
1672,345
1673,342
1674,345
1675,347
1676,348
1677,348
1678,347
1679,344
1680,340
1681,338
1682,338
1683,338
1684,342
1685,342
1686,341
1687,340
1688,339
1689,339
1690,339
1691,344
1692,346
1693,347
1694,346
1695,345
1696,342
1697,340
1698,340
1699,341
1700,344
1701,345
1702,346
1703,345
1704,343
1705,341
1707,341
1708,345
1709,346
1710,347
1711,345
1712,343
1713,341
1714,338
1715,336
1716,336
1717,342
1718,343
1719,344
1720,343
1721,342
1722,342
1723,340
1724,340
1725,345
1726,345
1727,346
1728,344
1729,344
1730,338
1731,337
1732,337
1733,342
1734,342
1735,343
1736,343
1737,342
1738,341
1739,341
1740,341
1741,345
1742,346
1743,346
1744,345
1745,342
1746,340
1747,340
1748,337
1750,340
1751,342
1752,343
1753,344
1754,343
1755,342
1756,341
1757,341
1758,346
1759,347
1760,347
1761,346
1762,344
1763,344
1764,344
1765,344
1766,344
1767,341
1768,342
1769,341
1770,341
1771,340
1772,339
1773,340
1774,340
1775,346
1776,347
1777,347
1778,346
1779,346
1780,346
1781,338
1782,339
1783,342
1784,344
1785,344
1786,344
1787,342
1788,341
1789,341
1790,343
1792,345
1793,346
1794,346
1795,345
1796,343
1797,339
1798,337
1799,338
1800,338
1801,343
1802,343
1803,343
1804,342
1805,340
1806,339
1807,341
1808,344
1809,345
1810,346
1811,345
1812,343
1813,343
1814,338
1815,338
1816,341
1817,342
1818,343
1819,343
1820,342
1821,340
1822,338
1823,340
1824,343
1825,345
1826,346
1827,346
1828,344
1829,344
1830,339
1831,338
1832,343
1833,343
1835,344
1836,345
1837,344
1838,342
1839,342
1840,341
1841,343
1842,345
1843,346
1844,346
1845,344
1846,344
1847,339
1848,339
1849,339
1850,342
1851,342
1852,344
1853,344
1854,343
1855,343
1856,343
1857,343
1858,346
1859,346
1860,346
1861,345
1862,342
1863,338
1864,336
1865,336
1866,339
1867,341
1868,341
1869,341
1870,340
1871,338
1872,339
1873,339
1874,345
1875,347
1876,348
1878,347
1879,346
1880,346
1881,339
1882,339
1883,344
1884,343
1885,343
1886,342
1887,341
1888,339
1889,333
1890,333
1891,342
1892,344
1893,346
1894,346
1895,345
1896,345
1897,345
1898,339
1899,341
1900,343
1901,343
1902,343
1903,341
1904,340
1905,338
1906,337
1907,340
1908,343
1909,345
1910,346
1911,346
1912,344
1913,344
1914,339
1915,339
1916,339
1917,344
1918,345
1920,344
1921,343
1922,341
1923,340
1924,340
1925,345
1926,345
1927,345
1928,344
1929,342
1930,342
1931,338
1932,337
1933,340
1934,342
1935,343
1936,344
1937,343
1938,341
1939,341
1940,341
1941,341
1942,347
1943,347
1944,347
1945,345
1946,341
1947,339
1948,337
1949,339
1950,342
1951,343
1952,344
1953,343
1954,342
1955,342
1956,342
1957,342
1958,347
1959,347
1960,347
1961,347
1963,347
1964,339
1965,337
1966,337
1967,340
1968,340
1969,339
1970,339
1971,338
1972,338
1973,338
1974,340
1975,344
1976,347
1977,347
1978,347
1979,346
1980,346
1981,341
1982,341
1983,341
1984,344
1985,343
1986,342
1987,341
1988,338
1989,338
1990,338
1991,341
1992,343
1993,344
1994,344
1995,343
1996,343
1997,339
1998,339
1999,342
2000,344
2001,345
2002,345
2003,344
2004,342
2006,342
2007,342
2008,343
2009,345
2010,345
2011,345
2012,343
2013,340
2014,338
2015,336
2016,342
2017,341
2018,342
2019,343
2020,343
2021,342
2022,341
2023,340
2024,340
2025,346
2026,346
2027,346
2028,345
2029,345
2030,345
2031,337
2032,337
2033,341
2034,341
2035,340
2036,340
2037,339
2038,338
2039,337
2040,340
2041,344
2042,345
2043,346
2044,347
2045,345
2046,345
2048,340
2049,339
2050,342
2051,343
2052,344
2053,344
2054,343
2055,341
2056,340
2057,340
2058,344
2059,345
2060,345
2061,345
2062,343
2063,343
2064,338
2065,338
2066,338
2067,341
2068,342
2069,341
2070,341
2071,339
2072,337
2073,337
2074,342
2075,344
2076,346
2077,346
2078,345
2079,345
2080,345
2081,345
2082,341
2083,343
2084,345
2085,345
2086,345
2087,344
2088,344
2089,344
2091,344
2092,346
2093,346
2094,346
2095,344
2096,342
2097,339
2098,336
2099,337
2100,337
2101,341
2102,342
2103,342
2104,341
2105,340
2106,340
2107,342
2108,345
2109,346
2110,347
2111,346
2112,344
2113,341
2114,341
2115,337
2116,340
2117,341
2118,343
2119,343
2120,342
2121,341
2122,340
2123,340
2124,340
2125,345
2126,346
2127,345
2128,343
2129,343
2130,338
2131,338
2132,338
2134,341
2135,341
2136,342
2137,341
2138,340
2139,340
2140,340
2141,343
2142,345
2143,346
2144,347
2145,347
2146,347
2147,347
2148,338
2149,334
2150,341
2151,342
2152,343
2153,342
2154,342
2155,340
2156,339
2157,339
2158,344
2159,346
2160,346
2161,345
2162,343
2163,339
2164,339
2165,338
2166,340
2167,341
2168,342
2169,342
2170,341
2171,339
2172,339
2173,339
2174,344
2176,345
2177,346
2178,345
2179,344
2180,341
2181,338
2182,337
2183,339
2184,341
2185,341
2186,340
2187,339
2188,338
2189,338
2190,338
2191,343
2192,344
2193,345
2194,346
2195,345
2196,343
2197,341
2198,339
2199,341
2200,343
2201,343
2202,343
2203,342
2204,341
2205,341
2206,338
2207,338
2208,343
2209,343
2210,344
2211,344
2212,341
2213,338
2214,337
2215,338
2216,338
2217,342
2219,343
2220,344
2221,343
2222,341
2223,341
2224,341
2225,345
2226,346
2227,346
2228,345
2229,342
2230,339
2231,337
2232,336
2233,339
2234,340
2235,340
2236,339
2237,339
2238,337
2239,337
2240,337
2241,342
2242,345
2243,346
2244,346
2245,346
2246,346
2247,340
2248,339
2249,341
2250,343
2251,343
2252,342
2253,341
2254,339
2255,338
2256,338
2257,338
2258,343
2259,344
2260,344
2262,344
2263,342
2264,342
2265,342
2266,338
2267,341
2268,342
2269,341
2270,341
2271,339
2272,338
2273,337
2274,340
2275,342
2276,344
2277,345
2278,345
2279,345
2280,340
2281,340
2282,340
2283,340
2284,342
2285,342
2286,342
2287,341
2288,339
2289,338
2290,339
2291,342
2292,343
2293,344
2294,344
2295,342
2296,342
2297,338
2298,336
2299,339
2300,341
2301,342
2302,342
2304,341
2305,340
2306,338
2307,339
2308,342
2309,343
2310,345
2311,345
2312,343
2313,343
2314,339
2315,339
2316,339
2317,341
2318,342
2319,343
2320,343
2321,342
2322,340
2323,340
2324,340
2325,345
2326,345
2327,345
2328,344
2329,344
2330,340
2331,338
2332,337
2333,340
2334,341
2335,341
2336,342
2337,341
2338,339
2339,339
2340,341
2341,344
2342,346
2343,346
2344,345
2345,343
2347,340
2348,338
2349,337
2350,339
2351,341
2352,341
2353,341
2354,340
2355,339
2356,337
2357,340
2358,343
2359,346
2360,347
2361,347
2362,346
2363,343
2364,340
2365,340
2366,340
2367,342
2368,342
2369,341
2370,341
2371,339
2372,339
2373,339
2374,339
2375,343
2376,344
2377,344
2378,343
2379,343
2380,339
2381,339
2382,339
2383,341
2384,342
2385,343
2386,343
2387,342
2388,337
2390,337
2391,343
2392,345
2393,346
2394,346
2395,345
2396,342
2397,339
2398,339
2399,336
2400,336
2401,339
2402,340
2403,340
2404,339
2405,338
2406,338
2407,340
2408,344
2409,345
2410,346
2411,346
2412,344
2413,344
2414,339
2415,338
2416,339
2417,342
2418,342
2419,342
2420,342
2421,340
2422,341
2423,341
2424,341
2425,344
2426,345
2427,344
2428,343
2429,343
2430,336
2432,336
2433,339
2434,342
2435,343
2436,345
2437,345
2438,344
2439,343
2440,343
2441,345
2442,346
2443,346
2444,345
2445,345
2446,345
2447,345
2448,335
2449,335
2450,338
2451,339
2452,340
2453,341
2454,341
2455,341
2456,340
2457,343
2458,346
2459,347
2460,348
2461,347
2462,345
2463,340
2464,340
2465,340
2466,338
2467,339
2468,339
2469,339
2470,338
2471,337
2472,337
2473,339
2475,343
2476,345
2477,347
2478,347
2479,345
2480,343
2481,344
2482,338
2483,340
2484,341
2485,341
2486,341
2487,340
2488,339
2489,338
2490,337
2491,341
2492,344
2493,345
2494,346
2495,345
2496,345
2497,345
2498,339
2499,339
2500,342
2501,343
2502,343
2503,343
2504,341
2505,340
2506,339
2507,339
2508,343
2509,344
2510,344
2511,344
2512,341
2513,338
2514,337
2515,337
2516,337
2518,342
2519,343
2520,344
2521,343
2522,341
2523,341
2524,342
2525,344
2526,346
2527,346
2528,345
2529,343
2530,339
2531,339
2532,336
2533,338
2534,341
2535,342
2536,343
2537,343
2538,342
2539,342
2540,342
2541,343
2542,346
2543,346
2544,346
2545,344
2546,336
2547,336
2548,336
2549,336
2550,340
2551,341
2552,343
2553,342
2554,342
2555,342
2556,340
2557,344
2558,345
2560,346
2561,346
2562,343
2563,343
2564,338
2565,338
2566,336
2567,339
2568,340
2569,340
2570,340
2571,339
2572,339
2573,339
2574,346
2575,345
2576,346
2577,347
2578,346
2579,344
2580,344
2581,339
2582,337
2583,339
2584,341
2585,342
2586,343
2587,342
2588,341
2589,340
2590,340
2591,344
2592,345
2593,345
2594,345
2595,343
2596,339
2597,337
2598,336
2599,337
2600,340
2601,339
2603,339
2604,338
2605,336
2606,336
2607,337
2608,341
2609,343
2610,345
2611,346
2612,346
2613,343
2614,343
2615,343
2616,341
2617,343
2618,344
2619,344
2620,344
2621,343
2622,341
2623,340
2624,342
2625,343
2626,344
2627,344
2628,343
2629,343
2630,338
2631,338
2632,337
2633,340
2634,342
2635,343
2636,343
2637,342
2638,341
2639,341
2640,342
2641,344
2642,345
2643,346
2644,345
2646,343
2647,339
2648,337
2649,337
2650,338
2651,339
2652,340
2653,340
2654,340
2655,339
2656,339
2657,339
2658,343
2659,345
2660,346
2661,346
2662,344
2663,344
2664,339
2665,337
2666,339
2667,341
2668,342
2669,342
2670,341
2671,339
2672,339
2673,338
2674,341
2675,344
2676,345
2677,345
2678,344
2679,344
2680,339
2681,337
2682,337
2683,341
2684,340
2685,340
2686,339
2688,338
2689,338
2690,338
2691,339
2692,342
2693,345
2694,346
2695,346
2696,344
2697,344
2698,340
2699,339
2700,339
2701,342
2702,342
2703,341
2704,340
2705,338
2706,338
2707,338
2708,342
2709,344
2710,345
2711,345
2712,344
2713,344
2714,338
2715,338
2716,339
2717,342
2718,343
2719,343
2720,343
2721,341
2722,340
2723,341
2724,343
2725,344
2726,345
2727,345
2728,343
2729,341
2731,336
2732,336
2733,336
2734,339
2735,340
2736,339
2737,339
2738,338
2739,337
2740,337
2741,341
2742,343
2743,345
2744,347
2745,347
2746,344
2747,342
2748,339
2749,339
2750,341
2751,340
2752,340
2753,338
2754,337
2755,337
2756,335
2757,337
2758,340
2759,342
2760,344
2761,344
2762,343
2763,343
2764,343
2765,340
2766,342
2767,342
2768,341
2769,341
2770,339
2771,337
2772,340
2774,340
2775,341
2776,342
2777,344
2778,345
2779,344
2780,341
2781,341
2782,339
2783,339
2784,342
2785,343
2786,342
2787,341
2788,339
2789,339
2790,339
2791,341
2792,343
2793,344
2794,344
2795,344
2796,344
2797,338
2798,338
2799,338
2800,340
2801,340
2802,339
2803,339
2804,338
2805,338
2806,338
2807,338
2808,343
2809,345
2810,346
2811,347
2812,344
2813,344
2814,338
2816,338
2817,338
2818,342
2819,342
2820,341
2821,341
2822,340
2823,339
2824,341
2825,343
2826,345
2827,346
2828,345
2829,344
2830,344
2831,338
2832,338
2833,339
2834,340
2835,341
2836,341
2837,340
2838,339
2839,337
2840,340
2841,340
2842,345
2843,346
2844,346
2845,345
2846,342
2847,338
2848,337
2849,337
2850,340
2851,341
2852,341
2853,341
2854,340
2855,339
2856,339
2857,342
2859,345
2860,346
2861,347
2862,346
2863,343
2864,343
2865,338
2866,338
2867,340
2868,341
2869,341
2870,342
2871,341
2872,341
2873,340
2874,341
2875,345
2876,346
2877,346
2878,346
2879,343
2880,343
2881,337
2882,336
2883,338
2884,340
2885,341
2886,342
2887,342
2888,340
2889,340
2890,340
2891,346
2892,347
2893,347
2894,347
2895,345
2896,345
2897,345
2898,336
2899,338
2900,340
2902,341
2903,341
2904,341
2905,340
2906,340
2907,341
2908,343
2909,345
2910,346
2911,346
2912,345
2913,342
2914,339
2915,337
2916,337
2917,340
2918,341
2919,342
2920,342
2921,341
2922,340
2923,340
2924,340
2925,344
2926,346
2927,346
2928,345
2929,345
2930,345
2931,345
2932,338
2933,340
2934,341
2935,342
2936,341
2937,340
2938,340
2939,339
2940,339
2941,344
2942,345
2944,346
2945,345
2946,343
2947,341
2948,341
2949,341
2950,339
2951,340
2952,341
2953,342
2954,341
2955,340
2956,340
2957,340
2958,344
2959,346
2960,347
2961,346
2962,345
2963,345
2964,339
2965,337
2966,337
2967,340
2968,341
2969,341
2970,342
2971,342
2972,342
2973,341
2974,344
2975,347
2976,347
2977,347
2978,346
2979,343
2980,339
2981,337
2982,337
2983,340
2984,340
2985,339
2987,340
2988,340
2989,340
2990,340
2991,341
2992,344
2993,346
2994,346
2995,346
2996,345
2997,345
2998,338
2999,338
3000,338
3001,341
3002,341
3003,340
3004,339
3005,337
3006,336
3007,338
3008,341
3009,343
3010,345
3011,345
3012,345
3013,341
3014,339
3015,339
3016,341
3017,342
3018,343
3019,342
3020,341
3021,340
3022,340
3023,340
3024,340
3025,344
3026,345
3027,345
3028,344
3030,341
3031,341
3032,341
3033,341
3034,341
3035,342
3036,342
3037,342
3038,340
3039,340
3040,338
3041,338
3042,344
3043,344
3044,345
3045,344
3046,344
3047,344
3048,344
3049,337
3050,341
3051,342
3052,343
3053,343
3054,342
3055,344
3056,339
3057,339
3058,345
3059,346
3060,346
3061,346
3062,343
3063,340
3064,340
3065,336
3066,339
3067,340
3068,341
3069,341
3070,341
3072,339
3073,340
3074,341
3075,345
3076,347
3077,348
3078,348
3079,346
3080,342
3081,339
3082,339
3083,339
3084,341
3085,341
3086,342
3087,341
3088,340
3089,339
3090,340
3091,340
3092,345
3093,347
3094,347
3095,345
3096,343
3097,340
3098,338
3099,339
3100,341
3101,341
3102,341
3103,340
3104,339
3105,343
3106,343
3107,341
3108,343
3109,345
3110,346
3111,345
3112,345
3113,341
3115,338
3116,338
3117,342
3118,342
3119,342
3120,342
3121,340
3122,339
3123,338
3124,338
3125,342
3126,343
3127,344
3128,344
3129,343
3130,343
3131,338
3132,338
3133,341
3134,343
3135,345
3136,346
3137,345
3138,343
3139,343
3140,341
3141,341
3142,345
3143,345
3144,344
3145,342
3146,342
3147,336
3148,336
3149,336
3150,340
3151,341
3152,342
3153,343
3154,342
3155,342
3156,341
3158,341
3159,347
3160,347
3161,347
3162,345
3163,345
3164,339
3165,336
3166,336
3167,339
3168,340
3169,340
3170,341
3171,341
3172,341
3173,339
3174,339
3175,345
3176,347
3177,347
3178,346
3179,344
3180,344
3181,338
3182,337
3183,337
3184,341
3185,341
3186,341
3187,340
3188,339
3189,339
3190,339
3191,343
3192,345
3193,346
3194,346
3195,344
3196,341
3197,339
3198,339
3200,339
3201,341
3202,343
3203,343
3204,343
3205,341
3206,340
3207,341
3208,343
3209,345
3210,346
3211,346
3212,344
3213,344
3214,338
3215,336
3216,338
3217,340
3218,340
3219,341
3220,340
3221,339
3222,338
3223,338
3224,341
3225,344
3226,346
3227,347
3228,346
3229,343
3230,341
3231,338
3232,338
3233,341
3234,341
3235,340
3236,340
3237,338
3238,338
3239,337
3240,338
3241,342
3243,344
3244,345
3245,345
3246,344
3247,341
3248,339
3249,338
3250,340
3251,343
3252,344
3253,345
3254,344
3255,342
3256,345
3257,342
3258,344
3259,345
3260,345
3261,344
3262,342
3263,342
3264,336
3265,336
3266,336
3267,339
3268,341
3269,342
3270,342
3271,342
3272,345
3273,342
3274,342
3275,347
3276,348
3277,347
3278,346
3279,346
3280,339
3281,339
3282,339
3283,339
3284,341
3286,342
3287,341
3288,341
3289,341
3290,341
3291,343
3292,345
3293,346
3294,346
3295,345
3296,343
3297,339
3298,339
3299,337
3300,337
3301,340
3302,341
3303,341
3304,341
3305,339
3306,339
3307,341
3308,344
3309,346
3310,347
3311,346
3312,344
3313,344
3314,344
3315,337
3316,339
3317,340
3318,340
3319,340
3320,339
3321,339
3322,337
3323,339
3324,339
3325,344
3326,345
3328,346
3329,344
3330,341
3331,339
3332,339
3333,339
3334,342
3335,343
3336,343
3337,343
3338,341
3339,340
3340,340
3341,341
3342,343
3343,344
3344,344
3345,343
3346,343
3347,337
3348,337
3349,337
3350,340
3351,343
3352,344
3353,345
3354,345
3355,343
3356,343
3357,344
3358,345
3359,346
3360,345
3361,344
3362,341
3363,337
3364,335
3365,335
3366,337
3367,339
3368,341
3369,342
3371,342
3372,341
3373,341
3374,343
3375,346
3376,348
3377,349
3378,348
3379,346
3380,346
3381,339
3382,337
3383,337
3384,338
3385,339
3386,340
3387,339
3388,339
3389,339
3390,339
3391,344
3392,346
3393,348
3394,348
3395,346
3396,343
3397,340
3398,337
3399,337
3400,339
3401,339
3402,339
3403,338
3404,337
3405,337
3406,337
3407,337
3408,344
3409,346
3410,347
3411,347
3412,345
3414,341
3415,340
3416,339
3417,342
3418,342
3419,342
3420,341
3421,339
3422,339
3423,338
3424,339
3425,342
3426,344
3427,345
3428,345
3429,343
3430,343
3431,338
3432,338
3433,339
3434,341
3435,341
3436,341
3437,340
3438,339
3439,338
3440,339
3441,342
3442,344
3443,346
3444,345
3445,344
3446,341
3447,339
3448,338
3449,338
3450,341
3451,343
3452,343
3453,342
3454,341
3456,341
3457,341
3458,341
3459,344
3460,345
3461,345
3462,345
3463,345
3464,338
3465,336
3466,338
3467,340
3468,340
3469,341
3470,339
3471,339
3472,339
3473,337
3474,340
3475,344
3476,346
3477,347
3478,346
3479,344
3480,344
3481,339
3482,338
3483,338
3484,341
3485,342
3486,342
3487,340
3488,339
3489,339
3490,340
3491,344
3492,345
3493,346
3494,346
3495,344
3496,344
3497,344
3499,344
3500,340
3501,341
3502,341
3503,342
3504,341
3505,339
3506,339
3507,342
3508,342
3509,344
3510,345
3511,345
3512,344
3513,342
3514,342
3515,338
3516,339
3517,342
3518,342
3519,343
3520,342
3521,341
3522,339
3523,339
3524,339
3525,344
3526,345
3527,345
3528,345
3529,343
3530,339
3531,339
3532,338
3533,341
3534,341
3535,341
3536,341
3537,340
3538,338
3539,342
3540,342
3542,343
3543,345
3544,346
3545,345
3546,343
3547,340
3548,338
3549,337
3550,339
3551,341
3552,343
3553,342
3554,342
3555,341
3556,340
3557,340
3558,344
3559,345
3560,346
3561,346
3562,344
3563,340
3564,338
3565,337
3566,338
3567,340
3568,341
3569,342
3570,342
3571,341
3572,341
3573,341
3574,341
3575,346
3576,347
3577,347
3578,345
3579,342
3580,340
3581,337
3582,338
3584,341
3585,342
3586,344
3587,344
3588,343
3589,343
3590,343
3591,343
3592,347
3593,348
3594,347
3595,346
3596,343
3597,338
3598,336
3599,336
3600,336
3601,339
3602,339
3603,339
3604,338
3605,337
3606,337
3607,340
3608,344
3609,347
3610,347
3611,347
3612,346
3613,346
3614,340
3615,339
3616,341
3617,342
3618,342
3619,341
3620,340
3621,338
3622,341
3623,338
3624,338
3625,344
3627,345
3628,345
3629,345
3630,342
3631,342
3632,338
3633,338
3634,341
3635,342
3636,343
3637,342
3638,341
3639,342
3640,339
3641,342
3642,344
3643,345
3644,345
3645,344
3646,344
3647,344
3648,337
3649,337
3650,340
3651,340
3652,341
3653,340
3654,339
3655,338
3656,338
3657,340
3658,344
3659,345
3660,346
3661,346
3662,343
3663,340
3664,338
3665,338
3666,340
3667,341
3668,341
3670,342
3671,340
3672,339
3673,339
3674,340
3675,344
3676,345
3677,346
3678,346
3679,344
3680,341
3681,338
3682,337
3683,339
3684,341
3685,342
3686,342
3687,341
3688,340
3689,340
3690,340
3691,342
3692,345
3693,346
3694,346
3695,345
3696,345
3697,345
3698,345
3699,345
3700,341
3701,343
3702,343
3703,343
3704,342
3705,342
3706,341
3707,341
3708,344
3709,345
3710,345
3712,344
3713,344
3714,344
3715,344
3716,344
3717,340
3718,341
3719,340
3720,340
3721,339
3722,337
3723,337
3724,340
3725,343
3726,346
3727,347
3728,346
3729,345
3730,345
3731,339
3732,339
3733,341
3734,342
3735,343
3736,343
3737,342
3738,341
3739,339
3740,339
3741,343
3742,344
3743,345
3744,344
3745,343
3746,343
3747,343
3748,343
3749,337
3750,341
3751,342
3752,343
3753,343
3755,342
3756,341
3757,341
3758,341
3759,346
3760,347
3761,347
3762,347
3763,347
3764,339
3765,339
3766,339
3767,340
3768,341
3769,342
3770,342
3771,342
3772,339
3773,344
3774,344
3775,346
3776,347
3777,347
3778,346
3779,343
3780,343
3781,343
3782,343
3783,343
3784,341
3785,342
3786,342
3787,342
3788,341
3789,341
3790,342
3791,345
3792,347
3793,348
3794,347
3795,345
3796,345
3798,345
3799,339
3800,340
3801,343
3802,344
3803,345
3804,345
3805,343
3806,343
3807,343
3808,343
3809,347
3810,347
3811,347
3812,344
3813,337
3814,337
3815,336
3816,336
3817,339
3818,341
3819,343
3820,343
3821,343
3822,343
3823,343
3824,343
3825,348
3826,349
3827,348
3828,346
3829,346
3830,346
3831,346
3832,346
3833,339
3834,339
3835,341
3836,341
3837,341
3838,341
3840,341
3841,341
3842,348
3843,348
3844,349
3845,348
3846,345
3847,341
3848,338
3849,338
3850,338
3851,340
3852,341
3853,341
3854,341
3855,340
3856,340
3857,342
3858,346
3859,348
3860,348
3861,348
3862,346
3863,346
3864,339
3865,337
3866,338
3867,341
3868,342
3869,343
3870,343
3871,342
3872,342
3873,341
3874,345
3875,346
3876,347
3877,347
3878,345
3879,345
3880,339
3881,337
3883,337
3884,340
3885,341
3886,343
3887,343
3888,343
3889,343
3890,342
3891,345
3892,347
3893,348
3894,348
3895,347
3896,344
3897,344
3898,344
3899,338
3900,338
3901,341
3902,343
3903,344
3904,345
3905,344
3906,343
3907,343
3908,348
3909,348
3910,348
3911,346
3912,343
3913,339
3914,336
3915,336
3916,337
3917,339
3918,342
3919,344
3920,344
3921,344
3922,344
3923,345
3924,348
3926,349
3927,349
3928,348
3929,345
3930,345
3931,337
3932,337
3933,336
3934,337
3935,340
3936,342
3937,343
3938,343
3939,343
3940,344
3941,347
3942,349
3943,349
3944,349
3945,347
3946,347
3947,340
3948,336
3949,336
3950,338
3951,340
3952,342
3953,343
3954,343
3955,343
3956,343
3957,344
3958,348
3959,349
3960,349
3961,347
3962,344
3963,340
3964,337
3965,336
3966,336
3968,338
3969,339
3970,339
3971,339
3972,338
3973,339
3974,339
3975,345
3976,347
3977,348
3978,348
3979,346
3980,343
3981,339
3982,338
3983,339
3984,341
3985,342
3986,343
3987,343
3988,341
3989,341
3990,341
3991,344
3992,345
3993,346
3994,346
3995,344
3996,340
3997,338
3998,336
3999,338
4000,340
4001,343
4002,344
4003,345
4004,345
4005,345
4006,343
4007,343
4008,348
4009,347
4011,346
4012,346
4013,346
4014,346
4015,346
4016,346
4017,337
4018,340
4019,343
4020,344
4021,344
4022,345
4023,344
4024,344
4025,349
4026,349
4027,349
4028,347
4029,343
4030,339
4031,336
4032,336
4033,336
4034,338
4035,341
4036,343
4037,344
4038,344
4039,344
4040,344
4041,348
4042,350
4043,349
4044,347
4045,345
4046,345
4047,331
4048,334
4049,334
4050,336
4051,339
4052,340
4054,342
4055,342
4056,342
4057,343
4058,346
4059,349
4060,349
4061,348
4062,347
4063,347
4064,339
4065,336
4066,336
4067,338
4068,340
4069,341
4070,342
4071,342
4072,342
4073,341
4074,341
4075,346
4076,347
4077,347
4078,346
4079,343
4080,339
4081,339
4082,339
4083,339
4084,339
4085,341
4086,341
4087,341
4088,340
4089,340
4090,344
4091,347
4092,348
4093,348
4094,348
4096,345
4097,345
4098,345
4099,337
4100,338
4101,340
4102,343
4103,344
4104,344
4105,344
4106,344
4107,344
4108,344
4109,348
4110,347
4111,347
4112,344
4113,343
4114,338
4115,335
4116,336
4117,339
4118,342
4119,345
4120,347
4121,347
4122,347
4123,347
4124,349
4125,350
4126,349
4127,347
4128,345
4129,345
4130,336
4131,334
4132,333
4133,336
4134,338
4135,341
4136,343
4137,343
4139,343
4140,344
4141,346
4142,349
4143,351
4144,350
4145,348
4146,348
4147,340
4148,334
4149,334
4150,336
4151,337
4152,337
4153,338
4154,339
4155,338
4156,338
4157,341
4158,345
4159,347
4160,348
4161,348
4162,347
4163,347
4164,347
4165,338
4166,338
4167,340
4168,341
4169,341
4170,341
4171,340
4172,340
4173,339
4174,339
4175,345
4176,346
4177,346
4178,344
4179,342
4180,342
4182,337
4183,337
4184,340
4185,342
4186,344
4187,344
4188,344
4189,343
4190,343
4191,343
4192,347
4193,347
4194,346
4195,346
4196,341
4197,337
4198,336
4199,335
4200,335
4201,339
4202,342
4203,344
4204,344
4205,343
4206,343
4207,345
4208,348
4209,348
4210,348
4211,347
4212,344
4213,344
4214,337
4215,335
4216,336
4217,339
4218,342
4219,345
4220,345
4221,345
4222,345
4224,346
4225,348
4226,349
4227,348
4228,347
4229,344
4230,344
4231,336
4232,334
4233,334
4234,337
4235,339
4236,341
4237,342
4238,342
4239,342
4240,342
4241,345
4242,348
4243,348
4244,347
4245,346
4246,346
4247,339
4248,336
4249,336
4250,337
4251,339
4252,341
4253,341
4254,341
4255,341
4256,341
4257,343
4258,347
4259,348
4260,348
4261,347
4262,344
4263,340
4264,340
4265,337
4267,337
4268,340
4269,343
4270,343
4271,344
4272,343
4273,342
4274,344
4275,347
4276,348
4277,348
4278,347
4279,344
4280,344
4281,337
4282,337
4283,336
4284,338
4285,340
4286,342
4287,342
4288,342
4289,341
4290,343
4291,343
4292,348
4293,349
4294,348
4295,346
4296,342
4297,339
4298,336
4299,336
4300,338
4301,339
4302,341
4303,342
4304,342
4305,342
4306,346
4307,346
4308,348
4310,348
4311,348
4312,348
4313,348
4314,340
4315,338
4316,338
4317,338
4318,340
4319,343
4320,344
4321,344
4322,344
4323,344
4324,345
4325,347
4326,348
4327,347
4328,346
4329,343
4330,343
4331,336
4332,336
4333,336
4334,340
4335,343
4336,345
4337,347
4338,347
4339,348
4340,348
4341,350
4342,350
4343,349
4344,347
4345,344
4346,339
4347,336
4348,336
4349,333
4350,335
4352,338
4353,339
4354,341
4355,342
4356,342
4357,344
4358,344
4359,350
4360,350
4361,350
4362,347
4363,344
4364,339
4365,336
4366,336
4367,337
4368,339
4369,340
4370,341
4371,341
4372,341
4373,340
4374,343
4375,346
4376,347
4377,347
4378,344
4379,343
4380,343
4381,343
4382,343
4383,343
4384,342
4385,345
4386,347
4387,348
4388,347
4389,347
4390,347
4391,348
4392,348
4393,347
4395,345
4396,342
4397,342
4398,335
4399,333
4400,335
4401,339
4402,343
4403,347
4404,348
4405,348
4406,348
4407,348
4408,351
4409,351
4410,349
4411,346
4412,343
4413,343
4414,334
4415,331
4416,331
4417,335
4418,338
4419,341
4420,344
4421,346
4422,342
4423,348
4424,350
4425,353
4426,352
4427,351
4428,347
4429,347
4430,338
4431,334
4432,333
4433,334
4434,337
4435,339
4436,341
4438,342
4439,342
4440,342
4441,346
4442,349
4443,350
4444,350
4445,348
4446,345
4447,345
4448,345
4449,335
4450,336
4451,338
4452,340
4453,341
4454,341
4455,341
4456,341
4457,341
4458,347
4459,349
4460,349
4461,348
4462,346
4463,346
4464,338
4465,336
4466,337
4467,339
4468,342
4469,343
4470,344
4471,344
4472,344
4473,344
4474,346
4475,348
4476,348
4477,347
4478,344
4480,341
4481,341
4482,334
4483,334
4484,338
4485,341
4486,344
4487,346
4488,347
4489,347
4490,347
4491,349
4492,351
4493,350
4494,348
4495,348
4496,341
4497,341
4498,333
4499,333
4500,335
4501,337
4502,340
4503,342
4504,344
4505,344
4506,344
4507,347
4508,349
4509,350
4510,349
4511,347
4512,344
4513,339
4514,340
4515,335
4516,335
4517,338
4518,342
4519,343
4520,345
4521,344
4523,348
4524,345
4525,348
4526,349
4527,349
4528,347
4529,345
4530,345
4531,345
4532,335
4533,335
4534,338
4535,342
4536,345
4537,346
4538,347
4539,345
4540,345
4541,349
4542,349
4543,349
4544,347
4545,344
4546,340
4547,336
4548,333
4549,334
4550,336
4551,339
4552,342
4553,343
4554,344
4555,345
4556,345
4557,345
4558,349
4559,349
4560,349
4561,347
4562,343
4563,343
4564,343
4566,334
4567,334
4568,338
4569,341
4570,343
4571,344
4572,344
4573,344
4574,344
4575,349
4576,350
4577,350
4578,348
4579,345
4580,345
4581,337
4582,335
4583,335
4584,338
4585,341
4586,343
4587,344
4588,344
4589,344
4590,345
4591,349
4592,350
4593,350
4594,348
4595,346
4596,341
4597,341
4598,335
4599,335
4600,337
4601,340
4602,342
4603,343
4604,343
4605,343
4606,343
4608,347
4609,349
4610,350
4611,349
4612,349
4613,349
4614,339
4615,336
4616,335
4617,337
4618,339
4619,341
4620,342
4621,342
4622,342
4623,342
4624,344
4625,347
4626,348
4627,349
4628,347
4629,344
4630,340
4631,337
4632,336
4633,337
4634,339
4635,342
4636,344
4637,344
4638,344
4639,344
4640,344
4641,348
4642,348
4643,348
4644,347
4645,344
4646,344
4647,344
4648,335
4649,336
4651,339
4652,342
4653,344
4654,345
4655,345
4656,345
4657,345
4658,345
4659,350
4660,349
4661,348
4662,345
4663,341
4664,337
4665,333
4666,334
4667,336
4668,338
4669,341
4670,343
4671,343
4672,343
4673,344
4674,344
4675,350
4676,351
4677,350
4678,348
4679,344
4680,344
4681,344
4682,335
4683,335
4684,339
4685,341
4686,342
4687,343
4688,342
4689,342
4690,344
4691,347
4692,348
4694,348
4695,347
4696,344
4697,344
4698,333
4699,333
4700,336
4701,339
4702,342
4703,344
4704,345
4705,345
4706,345
4707,345
4708,349
4709,349
4710,349
4711,348
4712,345
4713,345
4714,337
4715,337
4716,335
4717,337
4718,340
4719,342
4720,344
4721,344
4722,344
4723,345
4724,345
4725,351
4726,351
4727,350
4728,347
4729,347
4730,347
4731,335
4732,335
4733,336
4734,339
4736,342
4737,344
4738,344
4739,344
4740,344
4741,344
4742,350
4743,350
4744,349
4745,348
4746,344
4747,344
4748,336
4749,336
4750,336
4751,338
4752,340
4753,342
4754,342
4755,342
4756,343
4757,343
4758,348
4759,349
4760,349
4761,348
4762,346
4763,341
4764,338
4765,338
4766,337
4767,338
4768,340
4769,341
4770,341
4771,340
4772,340
4773,340
4774,340
4775,347
4776,348
4777,347
4779,345
4780,343
4781,339
4782,339
4783,338
4784,340
4785,343
4786,344
4787,345
4788,344
4789,344
4790,343
4791,345
4792,346
4793,347
4794,346
4795,343
4796,343
4797,337
4798,335
4799,336
4800,337
4801,340
4802,343
4803,344
4804,345
4805,344
4806,343
4807,345
4808,348
4809,348
4810,348
4811,346
4812,343
4813,339
4814,335
4815,339
4816,336
4817,339
4818,342
4819,344
4820,345
4822,345
4823,345
4824,345
4825,350
4826,350
4827,350
4828,349
4829,345
4830,341
4831,336
4832,333
4833,334
4834,336
4835,338
4836,340
4837,342
4838,341
4839,342
4840,343
4841,343
4842,349
4843,350
4844,349
4845,347
4846,343
4847,339
4848,336
4849,337
4850,338
4851,341
4852,342
4853,344
4854,344
4855,343
4856,344
4857,346
4858,348
4859,348
4860,348
4861,346
4862,342
4864,338
4865,336
4866,335
4867,335
4868,340
4869,342
4870,343
4871,344
4872,343
4873,343
4874,343
4875,348
4876,349
4877,349
4878,348
4879,345
4880,345
4881,337
4882,337
4883,336
4884,339
4885,343
4886,346
4887,347
4888,347
4889,347
4890,347
4891,347
4892,350
4893,349
4894,347
4895,344
4896,344
4897,335
4898,333
4899,334
4900,337
4901,341
4902,345
4903,347
4904,348
4905,348
4907,348
4908,348
4909,352
4910,351
4911,349
4912,346
4913,341
4914,336
4915,336
4916,336
4917,335
4918,338
4919,342
4920,344
4921,346
4922,346
4923,346
4924,346
4925,351
4926,351
4927,350
4928,348
4929,344
4930,339
4931,335
4932,334
4933,335
4934,337
4935,339
4936,342
4937,342
4938,343
4939,343
4940,345
4941,348
4942,350
4943,350
4944,349
4945,346
4946,346
4947,346
4948,335
4950,336
4951,338
4952,341
4953,344
4954,345
4955,345
4956,345
4957,345
4958,347
4959,349
4960,349
4961,347
4962,344
4963,341
4964,336
4965,334
4966,335
4967,337
4968,340
4969,343
4970,345
4971,346
4972,345
4973,345
4974,345
4975,349
4976,349
4977,348
4978,345
4979,342
4980,337
4981,334
4982,334
4983,336
4984,339
4985,343
4986,345
4987,346
4988,346
4989,345
4990,345
4992,350
4993,350
4994,349
4995,347
4996,343
4997,338
4998,338
4999,333
5000,334
5001,337
5002,340
5003,342
5004,344
5005,344
5006,344
5007,344
5008,344
5009,350
5010,349
5011,348
5012,345
5013,341
5014,337
5015,339
5016,339
5017,337
5018,339
5019,341
5020,342
5021,342
5022,342
5023,343
5024,343
5025,348
5026,349
5027,348
5028,346
5029,346
5030,346
5031,346
5032,346
5033,338
5035,339
5036,341
5037,342
5038,342
5039,342
5040,342
5041,342
5042,346
5043,348
5044,347
5045,346
5046,343
5047,343
5048,336
5049,335
5050,335
5051,341
5052,345
5053,347
5054,349
5055,347
5056,346
5057,346
5058,349
5059,349
5060,348
5061,345
5062,342
5063,338
5064,334
5065,334
5066,334
5067,337
5068,341
5069,344
5070,346
5071,347
5072,346
5073,346
5074,346
5075,351
5076,350
5078,349
5079,345
5080,340
5081,341
5082,334
5083,334
5084,336
5085,339
5086,341
5087,343
5088,343
5089,343
5090,344
5091,348
5092,348
5093,349
5094,348
5095,348
5096,348
5097,339
5098,339
5099,336
5100,337
5101,341
5102,343
5103,345
5104,345
5105,345
5106,345
5107,347
5108,349
5109,349
5110,348
5111,346
5112,342
5113,338
5114,335
5115,335
5116,336
5117,339
5118,342
5120,345
5121,347
5122,346
5123,346
5124,346
5125,349
5126,349
5127,348
5128,346
5129,343
5130,343
5131,335
5132,332
5133,334
5134,337
5135,342
5136,344
5137,348
5138,348
5139,348
5140,348
5141,348
5142,350
5143,350
5144,347
5145,344
5146,340
5147,335
5148,332
5149,332
5150,335
5151,339
5152,343
5153,345
5154,347
5155,347
5156,347
5157,349
5158,352
5159,351
5160,350
5161,350
5163,343
5164,343
5165,334
5166,336
5167,336
5168,338
5169,343
5170,345
5171,348
5172,348
5173,348
5174,348
5175,352
5176,351
5177,350
5178,347
5179,343
5180,343
5181,334
5182,332
5183,334
5184,336
5185,339
5186,342
5187,344
5188,344
5189,345
5190,345
5191,345
5192,351
5193,350
5194,349
5195,346
5196,346
5197,337
5198,335
5199,335
5200,338
5201,341
5202,344
5203,346
5204,346
5206,345
5207,345
5208,348
5209,349
5210,349
5211,348
5212,346
5213,341
5214,341
5215,334
5216,333
5217,336
5218,340
5219,343
5220,346
5221,347
5222,347
5223,347
5224,347
5225,350
5226,349
5227,348
5228,345
5229,341
5230,336
5231,336
5232,336
5233,333
5234,337
5235,340
5236,343
5237,345
5238,345
5239,345
5240,347
5241,350
5242,351
5243,351
5244,348
5245,345
5246,345
5248,345
5249,333
5250,334
5251,337
5252,340
5253,342
5254,344
5255,344
5256,345
5257,345
5258,349
5259,350
5260,350
5261,349
5262,346
5263,342
5264,338
5265,338
5266,334
5267,337
5268,340
5269,343
5270,344
5271,344
5272,344
5273,345
5274,347
5275,348
5276,348
5277,348
5278,348
5279,342
5280,337
5281,335
5282,334
5283,337
5284,340
5285,343
5286,345
5287,346
5288,345
5289,346
5291,346
5292,349
5293,349
5294,349
5295,346
5296,343
5297,339
5298,335
5299,333
5300,334
5301,337
5302,340
5303,342
5304,343
5305,343
5306,343
5307,343
5308,348
5309,349
5310,349
5311,348
5312,345
5313,345
5314,337
5315,335
5316,335
5317,338
5318,342
5319,344
5320,345
5321,345
5322,345
5323,345
5324,347
5325,347
5326,348
5327,346
5328,344
5329,340
5330,340
5331,334
5332,334
5334,336
5335,339
5336,342
5337,343
5338,344
5339,344
5340,344
5341,344
5342,349
5343,350
5344,349
5345,347
5346,343
5347,338
5348,335
5349,333
5350,333
5351,338
5352,341
5353,342
5354,343
5355,343
5356,342
5357,344
5358,347
5359,348
5360,348
5361,346
5362,343
5363,339
5364,336
5365,334
5366,335
5367,338
5368,340
5369,342
5370,343
5371,343
5372,343
5373,343
5374,346
5376,348
5377,348
5378,347
5379,345
5380,341
5381,338
5382,338
5383,338
5384,338
5385,340
5386,342
5387,343
5388,343
5389,342
5390,342
5391,342
5392,347
5393,348
5394,347
5395,347
5396,342
5397,339
5398,339
5399,335
5400,337
5401,339
5402,341
5403,342
5404,343
5405,341
5406,342
5407,342
5408,346
5409,347
5410,347
5411,345
5412,343
5413,339
5414,336
5415,336
5416,337
5417,339
5419,340
5420,340
5421,339
5422,339
5423,338
5424,338
5425,343
5426,345
5427,346
5428,346
5429,345
5430,342
5431,339
5432,337
5433,339
5434,339
5435,340
5436,340
5437,339
5438,339
5439,338
5440,338
5441,338
5442,344
5443,345
5444,345
5445,344
5446,342
5447,342
5448,338
5449,338
5450,341
5451,343
5452,345
5453,345
5454,344
5455,342
5456,342
5457,346
5458,347
5459,347
5460,346
5462,345
5463,345
5464,338
5465,338
5466,335
5467,338
5468,339
5469,340
5470,341
5471,341
5472,340
5473,340
5474,342
5475,345
5476,348
5477,348
5478,347
5479,345
5480,340
5481,338
5482,337
5483,338
5484,340
5485,342
5486,343
5487,343
5488,342
5489,342
5490,342
5491,342
5492,346
5493,346
5494,345
5495,343
5496,343
5497,337
5498,337
5499,337
5500,339
5501,341
5502,342
5504,342
5505,342
5506,342
5507,341
5508,344
5509,346
5510,347
5511,346
5512,344
5513,344
5514,344
5515,336
5516,336
5517,339
5518,341
5519,343
5520,343
5521,342
5522,342
5523,341
5524,343
5525,345
5526,346
5527,346
5528,344
5529,342
5530,338
5531,338
5532,338
5533,338
5534,339
5535,340
5536,341
5537,340
5538,339
5539,339
5540,339
5541,344
5542,346
5543,346
5544,346
5545,344
5547,344
5548,339
5549,339
5550,339
5551,340
5552,340
5553,340
5554,339
5555,338
5556,338
5557,338
5558,338
5559,345
5560,346
5561,346
5562,346
5563,343
5564,340
5565,340
5566,340
5567,342
5568,343
5569,344
5570,344
5571,342
5572,341
5573,340
5574,342
5575,343
5576,345
5577,344
5578,343
5579,343
5580,337
5581,336
5582,337
5583,339
5584,342
5585,343
5586,344
5587,343
5588,343
5590,343
5591,343
5592,345
5593,345
5594,345
5595,344
5596,341
5597,338
5598,335
5599,335
5600,337
5601,340
5602,343
5603,344
5604,345
5605,344
5606,343
5607,344
5608,347
5609,347
5610,347
5611,345
5612,343
5613,339
5614,339
5615,335
5616,336
5617,338
5618,341
5619,343
5620,343
5621,343
5622,343
5623,343
5624,343
5625,348
5626,347
5627,347
5628,345
5629,345
5630,338
5632,335
5633,335
5634,338
5635,339
5636,340
5637,340
5638,339
5639,338
5640,339
5641,341
5642,345
5643,346
5644,346
5645,346
5646,343
5647,343
5648,343
5649,338
5650,338
5651,342
5652,343
5653,344
5654,343
5655,341
5656,340
5657,340
5658,344
5659,346
5660,345
5661,344
5662,342
5663,339
5664,336
5665,336
5666,338
5667,340
5668,341
5669,341
5670,341
5671,339
5672,338
5673,338
5675,343
5676,344
5677,346
5678,345
5679,344
5680,344
5681,338
5682,338
5683,338
5684,341
5685,343
5686,343
5687,344
5688,344
5689,342
5690,341
5691,343
5692,345
5693,345
5694,345
5695,343
5696,343
5697,343
5698,335
5699,336
5700,339
5701,341
5702,345
5703,346
5704,346
5705,346
5706,346
5707,347
5708,349
5709,349
5710,348
5711,346
5712,342
5713,342
5714,335
5715,333
5716,335
5718,337
5719,339
5720,341
5721,342
5722,342
5723,342
5724,342
5725,347
5726,348
5727,349
5728,348
5729,345
5730,345
5731,338
5732,338
5733,337
5734,340
5735,342
5736,344
5737,344
5738,344
5739,342
5740,343
5741,346
5742,347
5743,347
5744,346
5745,344
5746,342
5747,342
5748,342
5749,336
5750,339
5751,341
5752,342
5753,343
5754,343
5755,341
5756,342
5757,344
5758,347
5760,347
5761,346
5762,345
5763,345
5764,338
5765,336
5766,336
5767,339
5768,341
5769,342
5770,342
5771,342
5772,341
5773,340
5774,340
5775,345
5776,346
5777,347
5778,345
5779,343
5780,343
5781,336
5782,336
5783,338
5784,340
5785,342
5786,343
5787,342
5788,342
5789,341
5790,341
5791,346
5792,347
5793,347
5794,346
5795,343
5796,343
5797,337
5798,335
5799,338
5800,339
5801,341
5803,343
5804,343
5805,343
5806,342
5807,342
5808,342
5809,347
5810,347
5811,347
5812,345
5813,342
5814,338
5815,338
5816,338
5817,338
5818,340
5819,342
5820,343
5821,343
5822,341
5823,343
5824,343
5825,348
5826,349
5827,348
5828,347
5829,344
5830,344
5831,340
5832,340
5833,340
5834,340
5835,341
5836,342
5837,342
5838,341
5839,341
5840,341
5841,346
5842,348
5843,348
5844,347
5846,344
5847,344
5848,338
5849,336
5850,337
5851,340
5852,342
5853,342
5854,343
5855,342
5856,343
5857,342
5858,344
5859,345
5860,347
5861,345
5862,343
5863,340
5864,337
5865,335
5866,336
5867,339
5868,341
5869,342
5870,343
5871,343
5872,343
5873,343
5874,344
5875,346
5876,346
5877,346
5878,344
5879,344
5880,338
5881,335
5882,336
5883,338
5884,341
5885,344
5886,346
5888,346
5889,346
5890,346
5891,346
5892,348
5893,348
5894,347
5895,345
5896,341
5897,340
5898,334
5899,334
5900,336
5901,337
5902,339
5903,340
5904,340
5905,340
5906,339
5907,342
5908,346
5909,348
5910,349
5911,348
5912,346
5913,345
5914,340
5915,340
5916,339
5917,341
5918,341
5919,341
5920,341
5921,339
5922,339
5923,338
5924,338
5925,344
5926,346
5927,346
5928,345
5929,345
5931,340
5932,340
5933,340
5934,341
5935,342
5936,343
5937,343
5938,342
5939,340
5940,340
5941,341
5942,345
5943,346
5944,346
5945,345
5946,343
5947,343
5948,337
5949,337
5950,340
5951,341
5952,344
5953,345
5954,345
5955,343
5956,342
5957,342
5958,347
5959,347
5960,347
5961,345
5962,342
5963,342
5964,336
5965,335
5966,336
5967,339
5968,341
5969,342
5970,343
5971,342
5972,342
5974,343
5975,346
5976,347
5977,348
5978,347
5979,345
5980,345
5981,339
5982,336
5983,337
5984,339
5985,341
5986,342
5987,343
5988,342
5989,342
5990,342
5991,344
5992,346
5993,347
5994,347
5995,345
5996,345
5997,339
5998,336
5999,338
6000,339
6001,339
6002,340
6003,341
6004,340
6005,338
6006,338
6007,338
6008,345
6009,346
6010,347
6011,346
6012,344
6013,341
6014,338
6016,337
6017,337
6018,340
6019,342
6020,342
6021,342
6022,340
6023,340
6024,342
6025,344
6026,346
6027,346
6028,345
6029,344
6030,344
6031,344
6032,344
6033,338
6034,340
6035,343
6036,344
6037,344
6038,343
6039,342
6040,343
6041,346
6042,347
6043,347
6044,346
6045,344
6046,341
6047,341
6048,335
6049,336
6050,338
6051,339
6052,340
6053,340
6054,340
6055,339
6056,339
6057,342
6059,345
6060,346
6061,346
6062,345
6063,343
6064,343
6065,343
6066,338
6067,339
6068,340
6069,341
6070,341
6071,340
6072,340
6073,339
6074,340
6075,344
6076,345
6077,345
6078,345
6079,343
6080,340
6081,340
6082,340
6083,340
6084,341
6085,342
6086,342
6087,341
6088,339
6089,339
6090,339
6091,343
6092,345
6093,346
6094,346
6095,344
6096,344
6097,342
6098,342
6099,340
6100,342
6102,342
6103,343
6104,343
6105,341
6106,340
6107,340
6108,341
6109,344
6110,345
6111,344
6112,343
6113,343
6114,343
6115,337
6116,338
6117,341
6118,344
6119,345
6120,347
6121,346
6122,344
6123,344
6124,344
6125,346
6126,347
6127,346
6128,344
6129,341
6130,336
6131,335
6132,335
6133,335
6134,340
6135,341
6136,342
6137,342
6138,342
6139,342
6140,344
6141,346
6142,348
6144,348
6145,346
6146,344
6147,344
6148,337
6149,336
6150,338
6151,339
6152,341
6153,341
6154,340
6155,339
6156,339
6157,339
6158,339
6159,346
6160,347
6161,347
6162,346
6163,344
6164,340
6165,340
6166,340
6167,342
6168,344
6169,345
6170,344
6171,343
6172,343
6173,343
6174,345
6175,346
6176,346
6177,346
6178,344
6179,344
6180,344
6181,336
6182,336
6183,341
6184,343
6185,345
6187,345
6188,345
6189,343
6190,343
6191,345
6192,347
6193,347
6194,346
6195,345
6196,342
6197,342
6198,342
6199,337
6200,341
6201,343
6202,344
6203,344
6204,344
6205,341
6206,342
6207,343
6208,346
6209,347
6210,347
6211,346
6212,344
6213,344
6214,338
6215,338
6216,342
6217,345
6218,347
6219,347
6220,346
6221,344
6222,343
6223,343
6224,343
6225,346
6226,346
6227,345
6228,343
6230,339
6231,336
6232,336
6233,339
6234,343
6235,347
6236,347
6237,347
6238,346
6239,345
6240,345
6241,347
6242,348
6243,348
6244,346
6245,346
6246,341
6247,337
6248,335
6249,338
6250,343
6251,344
6252,344
6253,343
6254,343
6255,343
6256,340
6257,343
6258,347
6259,348
6260,347
6261,346
6262,343
6263,343
6264,339
6265,341
6266,344
6267,346
6268,346
6269,345
6270,343
6272,342
6273,340
6274,340
6275,345
6276,347
6277,346
6278,345
6279,343
6280,343
6281,339
6282,339
6283,344
6284,348
6285,346
6286,345
6287,344
6288,341
6289,339
6290,339
6291,341
6292,344
6293,344
6294,344
6295,343
6296,343
6297,340
6298,340
6299,340
6300,350
6301,350
6302,350
6303,349
6304,346
6305,346
6306,346
6307,346
6308,345
6309,344
6310,343
6311,342
6312,340
6313,336
6315,336
6316,340
6317,340
6318,347
6319,349
6320,349
6321,348
6322,345
6323,343
6324,343
6325,348
6326,347
6327,346
6328,343
6329,341
6330,341
6331,341
6332,337
6333,343
6334,346
6335,348
6336,349
6337,348
6338,346
6339,345
6340,345
6341,349
6342,349
6343,347
6344,346
6345,343
6346,343
6347,343
6348,336
6349,341
6350,346
6351,347
6352,348
6353,348
6354,346
6355,344
6356,343
6358,348
6359,349
6360,347
6361,346
6362,346
6363,346
6364,337
6365,336
6366,340
6367,346
6368,349
6369,351
6370,351
6371,349
6372,347
6373,346
6374,346
6375,350
6376,349
6377,346
6378,344
6379,340
6380,340
6381,335
6382,335
6383,344
6384,347
6385,349
6386,349
6387,349
6388,347
6389,346
6390,346
6391,352
6392,350
6393,348
6394,345
6395,341
6396,341
6397,335
6398,337
6400,343
6401,347
6402,349
6403,350
6404,350
6405,348
6406,346
6407,346
6408,350
6409,349
6410,348
6411,345
6412,342
6413,342
6414,334
6415,334
6416,340
6417,345
6418,347
6419,348
6420,347
6421,346
6422,345
6423,345
6424,348
6425,349
6426,348
6427,347
6428,347
6429,341
6430,338
6431,338
6432,338
6433,348
6434,349
6435,350
6436,350
6437,348
6438,348
6439,344
6440,346
6441,348
6443,346
6444,344
6445,343
6446,339
6447,339
6448,335
6449,339
6450,345
6451,350
6452,352
6453,353
6454,353
6455,350
6456,350
6457,350
6458,352
6459,350
6460,347
6461,343
6462,339
6463,339
6464,333
6465,335
6466,335
6467,347
6468,349
6469,350
6470,350
6471,348
6472,346
6473,346
6474,351
6475,350
6476,348
6477,345
6478,341
6479,341
6480,341
6481,335
6482,341
6483,347
6484,351
6486,353
6487,354
6488,353
6489,353
6490,351
6491,353
6492,353
6493,350
6494,347
6495,342
6496,338
6497,333
6498,333
6499,337
6500,337
6501,346
6502,349
6503,350
6504,349
6505,347
6506,347
6507,347
6508,352
6509,350
6510,348
6511,345
6512,341
6513,341
6514,341
6515,337
6516,344
6517,348
6518,349
6519,350
6520,349
6521,348
6522,348
6523,346
6524,349
6525,349
6526,347
6528,344
6529,341
6530,341
6531,336
6532,337
6533,344
6534,349
6535,352
6536,353
6537,354
6538,351
6539,349
6540,349
6541,349
6542,350
6543,347
6544,344
6545,341
6546,341
6547,333
6548,333
6549,333
6550,346
6551,350
6552,352
6553,353
6554,353
6555,350
6556,350
6557,350
6558,353
6559,350
6560,346
6561,342
6562,338
6563,333
6564,336
6565,337
6566,344
6567,347
6568,350
6569,351
6571,351
6572,349
6573,349
6574,351
6575,353
6576,351
6577,348
6578,344
6579,340
6580,336
6581,334
6582,334
6583,334
6584,349
6585,352
6586,354
6587,354
6588,352
6589,352
6590,352
6591,352
6592,351
6593,348
6594,344
6595,344
6596,335
6597,335
6598,335
6599,335
6600,348
6601,349
6602,351
6603,350
6604,348
6605,348
6606,346
6607,350
6608,350
6609,347
6610,345
6611,342
6612,338
6614,335
6615,335
6616,340
6617,340
6618,351
6619,352
6620,353
6621,351
6622,348
6623,348
6624,350
6625,351
6626,349
6627,346
6628,343
6629,339
6630,335
6631,334
6632,337
6633,344
6634,349
6635,351
6636,353
6637,353
6638,350
6639,350
6640,351
6641,354
6642,352
6643,348
6644,344
6645,340
6646,340
6647,333
6648,335
6649,341
6650,347
6651,350
6652,351
6653,352
6654,350
6656,349
6657,350
6658,350
6659,352
6660,349
6661,345
6662,345
6663,345
6664,335
6665,335
6666,340
6667,347
6668,349
6669,349
6670,349
6671,347
6672,344
6673,344
6674,349
6675,350
6676,348
6677,346
6678,343
6679,340
6680,336
6681,336
6682,336
6683,336
6684,353
6685,354
6686,354
6687,353
6688,349
6689,349
6690,349
6691,351
6692,348
6693,344
6694,341
6695,337
6696,337
6697,334
6699,338
6700,346
6701,351
6702,355
6703,356
6704,355
6705,353
6706,351
6707,351
6708,354
6709,351
6710,347
6711,343
6712,338
6713,333
6714,331
6715,333
6716,333
6717,347
6718,350
6719,353
6720,353
6721,352
6722,352
6723,350
6724,354
6725,353
6726,349
6727,346
6728,346
6729,336
6730,333
6731,333
6732,338
6733,345
6734,348
6735,350
6736,351
6737,350
6738,348
6739,348
6740,348
6742,353
6743,351
6744,347
6745,344
6746,340
6747,340
6748,340
6749,339
6750,346
6751,349
6752,351
6753,351
6754,350
6755,347
6756,347
6757,347
6758,352
6759,349
6760,347
6761,343
6762,340
6763,336
6764,334
6765,334
6766,345
6767,350
6768,354
6769,355
6770,355
6771,353
6772,353
6773,353
6774,354
6775,352
6776,348
6777,344
6778,344
6779,335
6780,332
6781,332
6782,332
6784,346
6785,349
6786,351
6787,351
6788,350
6789,348
6790,348
6791,348
6792,353
6793,350
6794,347
6795,343
6796,339
6797,339
6798,335
6799,340
6800,340
6801,349
6802,350
6803,349
6804,347
6805,345
6806,345
6807,347
6808,350
6809,347
6810,344
6811,343
6812,339
6813,336
6814,336
6815,336
6816,349
6817,354
6818,357
6819,358
6820,357
6821,354
6822,354
6823,354
6824,353
6825,349
6827,345
6828,340
6829,336
6830,331
6831,330
6832,333
6833,340
6834,347
6835,352
6836,355
6837,356
6838,355
6839,355
6840,354
6841,357
6842,356
6843,351
6844,346
6845,340
6846,340
6847,331
6848,331
6849,337
6850,344
6851,347
6852,349
6853,350
6854,350
6855,348
6856,349
6857,353
6858,354
6859,352
6860,348
6861,344
6862,340
6863,340
6864,334
6865,339
6866,346
6867,349
6868,352
6870,353
6871,352
6872,350
6873,350
6874,350
6875,354
6876,350
6877,347
6878,343
6879,339
6880,335
6881,333
6882,336
6883,344
6884,349
6885,353
6886,355
6887,355
6888,353
6889,353
6890,353
6891,356
6892,353
6893,349
6894,345
6895,340
6896,335
6897,333
6898,332
6899,332
6900,346
6901,349
6902,351
6903,352
6904,351
6905,349
6906,349
6907,349
6908,353
6909,349
6910,346
6912,346
6913,338
6914,336
6915,334
6916,339
6917,346
6918,349
6919,351
6920,352
6921,351
6922,351
6923,351
6924,351
6925,352
6926,349
6927,346
6928,343
6929,339
6930,339
6931,334
6932,334
6933,346
6934,350
6935,352
6936,352
6937,351
6938,349
6939,349
6940,350
6941,352
6942,349
6943,346
6944,343
6945,343
6946,335
6947,334
6948,337
6949,345
6950,350
6951,353
6952,354
6953,353
6955,352
6956,349
6957,349
6958,349
6959,350
6960,347
6961,343
6962,343
6963,343
6964,343
6965,334
6966,334
6967,348
6968,351
6969,354
6970,354
6971,353
6972,350
6973,350
6974,353
6975,353
6976,349
6977,346
6978,341
6979,337
6980,333
6981,332
6982,338
6983,338
6984,350
6985,353
6986,354
6987,353
6988,351
6989,351
6990,354
6991,355
6992,351
6993,347
6994,343
6995,339
6996,339
6998,338
6999,338
7000,344
7001,348
7002,351
7003,352
7004,352
7005,350
7006,349
7007,351
7008,356
7009,352
7010,348
7011,344
7012,344
7013,336
7014,334
7015,334
7016,343
7017,349
7018,353
7019,355
7020,355
7021,353
7022,351
7023,351
7024,353
7025,352
7026,348
7027,344
7028,340
7029,340
7030,331
7031,332
7032,332
7033,346
7034,349
7035,352
7036,352
7037,351
7038,348
7040,348
7041,351
7042,352
7043,349
7044,346
7045,341
7046,341
7047,334
7048,333
7049,333
7050,346
7051,351
7052,354
7053,354
7054,353
7055,351
7056,350
7057,351
7058,353
7059,349
7060,345
7061,342
7062,337
7063,337
7064,332
7065,332
7066,332
7067,348
7068,350
7069,351
7070,350
7071,348
7072,347
7073,347
7074,352
7075,351
7076,347
7077,345
7078,341
7079,337
7080,337
7081,336
7083,344
7084,350
7085,352
7086,353
7087,353
7088,351
7089,348
7090,348
7091,348
7092,351
7093,347
7094,344
7095,343
7096,336
7097,332
7098,334
7099,340
7100,340
7101,353
7102,356
7103,358
7104,357
7105,354
7106,354
7107,356
7108,356
7109,352
7110,347
7111,342
7112,337
7113,337
7114,330
7115,337
7116,342
7117,347
7118,351
7119,352
7120,353
7121,351
7122,350
7123,350
7124,355
7126,352
7127,349
7128,345
7129,340
7130,340
7131,340
7132,340
7133,343
7134,347
7135,350
7136,350
7137,350
7138,348
7139,348
7140,348
7141,351
7142,350
7143,347
7144,344
7145,341
7146,341
7147,335
7148,335
7149,342
7150,349
7151,351
7152,353
7153,352
7154,351
7155,348
7156,348
7157,351
7158,350
7159,347
7160,344
7161,341
7162,337
7163,334
7164,334
7165,334
7166,334
7168,351
7169,353
7170,354
7171,352
7172,349
7173,349
7174,349
7175,353
7176,349
7177,346
7178,342
7179,339
7180,339
7181,333
7182,336
7183,345
7184,349
7185,352
7186,354
7187,354
7188,352
7189,350
7190,352
7191,352
7192,352
7193,348
7194,344
7195,340
7196,335
7197,333
7198,333
7199,341
7200,347
7201,350
7202,353
7203,354
7204,353
7205,353
7206,352
7207,354
7208,353
7209,350
7211,346
7212,342
7213,342
7214,333
7215,333
7216,340
7217,347
7218,350
7219,352
7220,353
7221,352
7222,350
7223,350
7224,353
7225,354
7226,350
7227,347
7228,342
7229,340
7230,340
7231,340
7232,340
7233,345
7234,349
7235,353
7236,354
7237,353
7238,351
7239,349
7240,349
7241,353
7242,349
7243,346
7244,342
7245,338
7246,338
7247,333
7248,333
7249,333
7250,348
7251,351
7252,353
7254,353
7255,351
7256,351
7257,351
7258,352
7259,350
7260,347
7261,343
7262,339
7263,334
7264,333
7265,334
7266,334
7267,347
7268,350
7269,352
7270,353
7271,351
7272,351
7273,350
7274,350
7275,352
7276,349
7277,345
7278,341
7279,334
7280,334
7281,334
7282,334
7283,334
7284,350
7285,351
7286,351
7287,350
7288,347
7289,347
7290,347
7291,351
7292,349
7293,346
7294,342
7296,336
7297,336
7298,337
7299,338
7300,346
7301,350
7302,353
7303,353
7304,352
7305,350
7306,349
7307,349
7308,353
7309,351
7310,347
7311,344
7312,339
7313,335
7314,332
7315,335
7316,343
7317,348
7318,352
7319,355
7320,355
7321,354
7322,352
7323,354
7324,355
7325,353
7326,349
7327,345
7328,341
7329,341
7330,341
7331,333
7332,339
7333,346
7334,348
7335,350
7336,350
7337,349
7339,349
7340,349
7341,351
7342,352
7343,349
7344,346
7345,343
7346,339
7347,339
7348,334
7349,340
7350,346
7351,351
7352,353
7353,353
7354,352
7355,349
7356,349
7357,350
7358,352
7359,349
7360,346
7361,342
7362,339
7363,334
7364,334
7365,334
7366,346
7367,350
7368,353
7369,353
7370,353
7371,350
7372,348
7373,348
7374,348
7375,350
7376,347
7377,344
7378,340
7379,335
7380,333
7382,336
7383,336
7384,349
7385,352
7386,353
7387,353
7388,351
7389,348
7390,348
7391,352
7392,351
7393,348
7394,345
7395,345
7396,345
7397,333
7398,333
7399,341
7400,348
7401,351
7402,353
7403,353
7404,352
7405,349
7406,348
7407,348
7408,351
7409,348
7410,345
7411,342
7412,337
7413,334
7414,334
7415,334
7416,347
7417,351
7418,353
7419,354
7420,353
7421,351
7422,351
7424,351
7425,354
7426,350
7427,347
7428,343
7429,339
7430,339
7431,334
7432,334
7433,334
7434,349
7435,352
7436,354
7437,354
7438,352
7439,352
7440,352
7441,352
7442,352
7443,348
7444,344
7445,344
7446,336
7447,332
7448,334
7449,334
7450,348
7451,352
7452,354
7453,355
7454,354
7455,352
7456,352
7457,354
7458,353
7459,350
7460,346
7461,341
7462,336
7463,336
7464,333
7465,338
7467,338
7468,350
7469,353
7470,354
7471,354
7472,352
7473,352
7474,354
7475,355
7476,351
7477,348
7478,343
7479,338
7480,338
7481,332
7482,337
7483,345
7484,349
7485,352
7486,353
7487,353
7488,351
7489,349
7490,351
7491,354
7492,351
7493,348
7494,344
7495,340
7496,336
7497,334
7498,334
7499,344
7500,349
7501,351
7502,352
7503,351
7504,349
7505,346
7506,347
7507,347
7508,350
7510,347
7511,344
7512,344
7513,344
7514,334
7515,334
7516,342
7517,349
7518,351
7519,353
7520,353
7521,351
7522,351
7523,351
7524,351
7525,351
7526,348
7527,345
7528,341
7529,337
7530,337
7531,337
7532,338
7533,347
7534,351
7535,353
7536,354
7537,353
7538,351
7539,350
7540,352
7541,354
7542,351
7543,347
7544,343
7545,339
7546,339
7547,334
7548,336
7549,344
7550,349
7552,351
7553,352
7554,353
7555,350
7556,350
7557,350
7558,350
7559,351
7560,348
7561,344
7562,341
7563,337
7564,337
7565,337
7566,344
7567,349
7568,353
7569,355
7570,355
7571,353
7572,353
7573,351
7574,351
7575,352
7576,348
7577,345
7578,345
7579,336
7580,332
7581,333
7582,340
7583,348
7584,350
7585,352
7586,351
7587,350
7588,347
7589,347
7590,347
7591,351
7592,348
7593,345
7595,342
7596,338
7597,338
7598,338
7599,338
7600,349
7601,352
7602,355
7603,355
7604,354
7605,350
7606,348
7607,350
7608,352
7609,348
7610,344
7611,341
7612,337
7613,337
7614,332
7615,336
7616,344
7617,351
7618,355
7619,357
7620,358
7621,356
7622,354
7623,354
7624,354
7625,353
7626,349
7627,344
7628,339
7629,333
7630,333
7631,331
7632,337
7633,344
7634,348
7635,350
7636,352
7638,352
7639,350
7640,351
7641,354
7642,355
7643,352
7644,348
7645,344
7646,339
7647,334
7648,334
7649,340
7650,340
7651,351
7652,353
7653,354
7654,353
7655,351
7656,350
7657,350
7658,354
7659,350
7660,347
7661,342
7662,338
7663,338
7664,333
7665,333
7666,345
7667,349
7668,352
7669,353
7670,352
7671,350
7672,348
7673,350
7674,350
7675,350
7676,347
7677,344
7678,340
7680,336
7681,334
7682,337
7683,345
7684,350
7685,353
7686,354
7687,354
7688,352
7689,352
7690,350
7691,352
7692,351
7693,347
7694,344
7695,339
7696,335
7697,335
7698,334
7699,341
7700,349
7701,351
7702,353
7703,354
7704,352
7705,348
7706,348
7707,348
7708,351
7709,348
7710,344
7711,341
7712,341
7713,333
7714,333
7715,339
7716,346
7717,351
7718,353
7719,355
7720,354
7721,352
7723,352
7724,353
7725,354
7726,351
7727,347
7728,342
7729,338
7730,338
7731,332
7732,340
7733,343
7734,349
7735,352
7736,354
7737,354
7738,352
7739,352
7740,352
7741,352
7742,353
7743,349
7744,345
7745,345
7746,336
7747,332
7748,333
7749,341
7750,347
7751,350
7752,351
7753,351
7754,349
7755,347
7756,347
7757,351
7758,351
7759,348
7760,346
7761,346
7762,346
7763,335
7764,335
7766,335
7767,350
7768,353
7769,355
7770,355
7771,353
7772,351
7773,351
7774,351
7775,352
7776,348
7777,344
7778,340
7779,336
7780,332
7781,332
7782,332
7783,347
7784,351
7785,354
7786,356
7787,355
7788,352
7789,351
7790,351
7791,351
7792,350
7793,346
7794,342
7795,338
7796,338
7797,338
7798,338
7799,338
7800,350
7801,354
7802,355
7803,356
7804,353
7805,352
7806,352
7808,354
7809,352
7810,348
7811,344
7812,339
7813,336
7814,336
7815,334
7816,341
7817,348
7818,352
7819,354
7820,354
7821,353
7822,350
7823,350
7824,350
7825,353
7826,349
7827,346
7828,341
7829,337
7830,333
7831,333
7832,338
7833,338
7834,350
7835,354
7836,356
7837,355
7838,353
7839,353
7840,353
7841,356
7842,352
7843,348
7844,343
7845,339
7846,339
7847,339
7848,337
7849,344
7851,348
7852,352
7853,353
7854,353
7855,351
7856,352
7857,351
7858,351
7859,352
7860,348
7861,344
7862,340
7863,335
7864,334
7865,334
7866,334
7867,350
7868,353
7869,354
7870,354
7871,352
7872,349
7873,350
7874,356
7875,352
7876,348
7877,344
7878,340
7879,340
7880,340
7881,340
7882,343
7883,348
7884,352
7885,354
7886,355
7887,354
7888,351
7889,351
7890,354
7891,354
7892,350
7894,345
7895,341
7896,337
7897,337
7898,333
7899,333
7900,346
7901,351
7902,354
7903,356
7904,356
7905,353
7906,352
7907,353
7908,355
7909,351
7910,347
7911,343
7912,338
7913,338
7914,338
7915,338
7916,338
7917,349
7918,351
7919,353
7920,353
7921,351
7922,349
7923,349
7924,353
7925,351
7926,347
7927,344
7928,340
7929,336
7930,333
7931,336
7932,336
7933,350
7934,353
7936,355
7937,355
7938,354
7939,351
7940,350
7941,352
7942,351
7943,347
7944,344
7945,339
7946,335
7947,335
7948,333
7949,333
7950,333
7951,351
7952,354
7953,354
7954,353
7955,351
7956,349
7957,349
7958,354
7959,350
7960,346
7961,342
7962,338
7963,338
7964,338
7965,339
7966,346
7967,350
7968,353
7969,355
7970,354
7971,352
7972,350
7973,351
7974,353
7975,350
7976,346
7977,342
7979,338
7980,338
7981,335
7982,336
7983,344
7984,350
7985,355
7986,357
7987,358
7988,356
7989,354
7990,354
7991,356
7992,353
7993,348
7994,343
7995,338
7996,338
7997,338
7998,331
7999,339
8000,347
8001,353
8002,358
8003,360
8004,360
8005,360
8006,360
8007,360
8008,357
8009,352
8010,347
8011,341
8012,335
8013,335
8014,329
8015,329
8016,341
8017,347
8018,351
8019,352
8020,353
8022,352
8023,352
8024,355
8025,357
8026,353
8027,349
8028,344
8029,339
8030,339
8031,339
8032,335
8033,342
8034,346
8035,349
8036,349
8037,349
8038,348
8039,348
8040,348
8041,354
8042,352
8043,349
8044,346
8045,342
8046,338
8047,338
8048,338
8049,338
8050,350
8051,352
8052,353
8053,353
8054,351
8055,351
8056,351
8057,352
8058,351
8059,347
8060,344
8061,340
8062,337
8064,333
8065,335
8066,341
8067,349
8068,352
8069,354
8070,355
8071,353
8072,350
8073,350
8074,352
8075,352
8076,349
8077,344
8078,341
8079,337
8080,337
8081,337
8082,339
8083,346
8084,350
8085,351
8086,351
8087,351
8088,348
8089,347
8090,349
8091,351
8092,349
8093,346
8094,343
8095,340
8096,340
8097,335
8098,335
8099,346
8100,351
8101,355
8102,356
8103,356
8104,354
8105,351
8107,351
8108,353
8109,351
8110,347
8111,342
8112,338
8113,338
8114,332
8115,332
8116,342
8117,348
8118,353
8119,356
8120,356
8121,355
8122,353
8123,352
8124,352
8125,353
8126,349
8127,344
8128,339
8129,334
8130,334
8131,329
8132,329
8133,329
8134,347
8135,351
8136,353
8137,353
8138,352
8139,352
8140,354
8141,356
8142,352
8143,348
8144,344
8145,338
8146,338
8147,332
8148,332
8150,343
8151,346
8152,348
8153,349
8154,348
8155,346
8156,345
8157,345
8158,345
8159,351
8160,348
8161,345
8162,342
8163,342
8164,337
8165,339
8166,346
8167,351
8168,353
8169,353
8170,353
8171,350
8172,347
8173,347
8174,350
8175,349
8176,346
8177,343
8178,340
8179,330
8180,330
8181,335
8182,341
8183,350
8184,354
8185,356
8186,357
8187,355
8188,352
8189,352
8190,352
8192,352
8193,349
8194,344
8195,340
8196,336
8197,331
8198,332
8199,338
8200,346
8201,351
8202,354
8203,355
8204,354
8205,352
8206,352
8207,352
8208,354
8209,349
8210,346
8211,341
8212,337
8213,333
8214,331
8215,331
8216,344
8217,349
8218,352
8219,354
8220,354
8221,353
8222,351
8223,351
8224,355
8225,352
8226,347
8227,343
8228,339
8229,334
8230,334
8231,334
8232,342
8233,347
8235,349
8236,351
8237,351
8238,349
8239,348
8240,348
8241,351
8242,351
8243,348
8244,345
8245,342
8246,338
8247,334
8248,334
8249,334
8250,350
8251,353
8252,355
8253,356
8254,354
8255,354
8256,350
8257,352
8258,352
8259,348
8260,344
8261,340
8262,336
8263,336
8264,336
8265,336
8266,344
8267,350
8268,353
8269,356
8270,356
8271,354
8272,353
8273,355
8274,357
8275,352
8276,348
8278,343
8279,343
8280,332
8281,330
8282,335
8283,340
8284,346
8285,349
8286,352
8287,352
8288,351
8289,351
8290,352
8291,352
8292,353
8293,350
8294,346
8295,341
8296,337
8297,333
8298,335
8299,335
8300,348
8301,351
8302,353
8303,352
8304,351
8305,351
8306,351
8307,351
8308,352
8309,349
8310,346
8311,342
8312,338
8313,338
8314,334
8315,341
8316,341
8317,351
8318,353
8320,353
8321,352
8322,349
8323,348
8324,350
8325,352
8326,348
8327,345
8328,341
8329,337
8330,337
8331,333
8332,333
8333,346
8334,350
8335,353
8336,355
8337,355
8338,352
8339,352
8340,352
8341,352
8342,351
8343,347
8344,343
8345,339
8346,333
8347,332
8348,335
8349,342
8350,347
8351,350
8352,352
8353,352
8354,351
8355,351
8356,348
8357,353
8358,352
8359,349
8360,345
8361,342
8363,342
8364,342
8365,342
8366,342
8367,348
8368,350
8369,351
8370,350
8371,349
8372,342
8373,346
8374,349
8375,350
8376,348
8377,345
8378,342
8379,338
8380,335
8381,335
8382,335
8383,348
8384,352
8385,354
8386,354
8387,353
8388,350
8389,348
8390,348
8391,352
8392,349
8393,346
8394,341
8395,337
8396,331
8397,333
8398,337
8399,345
8400,349
8401,352
8402,354
8403,353
8404,351
8406,349
8407,349
8408,352
8409,350
8410,346
8411,344
8412,339
8413,335
8414,335
8415,334
8416,342
8417,349
8418,352
8419,354
8420,353
8421,352
8422,352
8423,352
8424,352
8425,352
8426,348
8427,345
8428,345
8429,336
8430,333
8431,333
8432,341
8433,349
8434,352
8435,354
8436,355
8437,353
8438,350
8439,350
8440,352
8441,353
8442,349
8443,345
8444,341
8445,337
8446,332
8448,332
8449,337
8450,345
8451,350
8452,353
8453,354
8454,354
8455,352
8456,352
8457,352
8458,356
8459,352
8460,348
8461,344
8462,340
8463,340
8464,340
8465,335
8466,335
8467,347
8468,350
8469,352
8470,353
8471,352
8472,350
8473,350
8474,350
8475,354
8476,351
8477,346
8478,342
8479,342
8480,331
8481,335
8482,342
8483,348
8484,353
8485,356
8486,357
8487,356
8488,356
8489,353
8491,355
8492,354
8493,350
8494,346
8495,340
8496,339
8497,339
8498,331
8499,339
8500,339
8501,349
8502,351
8503,352
8504,351
8505,349
8506,349
8507,349
8508,354
8509,350
8510,347
8511,343
8512,339
8513,339
8514,339
8515,339
8516,347
8517,352
8518,355
8519,356
8520,355
8521,353
8522,353
8523,353
8524,353
8525,350
8526,346
8527,342
8528,338
8529,334
8530,332
8531,332
8532,341
8534,347
8535,350
8536,352
8537,352
8538,351
8539,349
8540,350
8541,354
8542,354
8543,351
8544,347
8545,343
8546,338
8547,338
8548,338
8549,341
8550,347
8551,350
8552,351
8553,352
8554,350
8555,347
8556,347
8557,350
8558,352
8559,349
8560,346
8561,342
8562,338
8563,338
8564,338
8565,339
8566,347
8567,351
8568,354
8569,354
8570,353
8571,351
8572,349
8573,351
8574,353
8576,350
8577,346
8578,342
8579,338
8580,338
8581,338
8582,336
8583,343
8584,349
8585,353
8586,355
8587,355
8588,353
8589,353
8590,353
8591,355
8592,352
8593,348
8594,344
8595,339
8596,339
8597,332
8598,334
8599,341
8600,348
8601,352
8602,355
8603,356
8604,354
8605,352
8606,352
8607,354
8608,353
8609,349
8610,345
8611,341
8612,335
8613,335
8614,335
8615,338
8616,338
8617,350
8619,352
8620,353
8621,352
8622,349
8623,350
8624,350
8625,353
8626,350
8627,347
8628,343
8629,338
8630,338
8631,338
8632,338
8633,345
8634,351
8635,354
8636,355
8637,355
8638,353
8639,353
8640,353
8641,355
8642,351
8643,347
8644,342
8645,339
8646,339
8647,339
8648,335
8649,343
8650,348
8651,351
8652,352
8653,352
8654,350
8655,348
8656,348
8657,353
8658,352
8659,349
8660,345
8662,342
8663,342
8664,335
8665,336
8666,336
8667,349
8668,353
8669,355
8670,355
8671,354
8672,350
8673,349
8674,352
8675,352
8676,348
8677,344
8678,340
8679,336
8680,336
8681,332
8682,339
8683,339
8684,351
8685,353
8686,354
8687,353
8688,351
8689,351
8690,351
8691,353
8692,350
8693,346
8694,342
8695,338
8696,338
8697,334
8698,337
8699,337
8700,349
8701,350
8702,351
8704,350
8705,348
8706,346
8707,347
8708,347
8709,349
8710,345
8711,343
8712,340
8713,336
8714,336
8715,338
8716,345
8717,352
8718,356
8719,358
8720,358
8721,356
8722,352
8723,352
8724,352
8725,351
8726,346
8727,342
8728,337
8729,333
8730,333
8731,333
8732,333
8733,348
8734,353
8735,357
8736,359
8737,358
8738,355
8739,355
8740,355
8741,356
8742,351
8743,346
8744,340
8745,335
8747,335
8748,335
8749,336
8750,344
8751,349
8752,352
8753,353
8754,353
8755,352
8756,352
8757,352
8758,354
8759,350
8760,346
8761,342
8762,337
8763,337
8764,334
8765,337
8766,345
8767,350
8768,353
8769,355
8770,355
8771,352
8772,350
8773,351
8774,351
8775,351
8776,347
8777,343
8778,339
8779,334
8780,333
8781,333
8782,333
8783,347
8784,349
8785,352
8786,352
8787,351
8788,351
8790,349
8791,349
8792,352
8793,348
8794,345
8795,341
8796,337
8797,337
8798,334
8799,340
8800,340
8801,350
8802,352
8803,353
8804,351
8805,349
8806,349
8807,349
8808,352
8809,348
8810,345
8811,341
8812,337
8813,337
8814,334
8815,334
8816,346
8817,352
8818,355
8819,356
8820,356
8821,353
8822,351
8823,355
8824,355
8825,351
8826,346
8827,341
8828,337
8829,337
8830,331
8832,331
8833,343
8834,348
8835,352
8836,353
8837,353
8838,352
8839,349
8840,350
8841,350
8842,352
8843,348
8844,344
8845,340
8846,336
8847,332
8848,334
8849,342
8850,348
8851,351
8852,353
8853,353
8854,351
8855,348
8856,348
8857,351
8858,352
8859,348
8860,345
8861,341
8862,337
8863,333
8864,333
8865,333
8866,348
8867,352
8868,356
8869,357
8870,356
8871,354
8872,354
8873,352
8875,354
8876,349
8877,345
8878,340
8879,336
8880,336
8881,336
8882,336
8883,343
8884,348
8885,352
8886,354
8887,354
8888,353
8889,352
8890,352
8891,355
8892,352
8893,349
8894,345
8895,345
8896,335
8897,336
8898,336
8899,341
8900,348
8901,350
8902,352
8903,352
8904,349
8905,347
8906,347
8907,347
8908,351
8909,348
8910,344
8911,344
8912,337
8913,337
8914,336
8915,342
8916,349
8918,353
8919,355
8920,355
8921,353
8922,353
8923,349
8924,349
8925,352
8926,348
8927,345
8928,341
8929,341
8930,341
8931,333
8932,333
8933,347
8934,352
8935,356
8936,357
8937,356
8938,353
8939,352
8940,354
8941,356
8942,351
8943,346
8944,342
8945,337
8946,337
8947,337
8948,335
8949,335
8950,349
8951,352
8952,355
8953,355
8954,353
8955,353
8956,353
8957,355
8958,352
8960,348
8961,344
8962,340
8963,335
8964,335
8965,333
8966,333
8967,347
8968,349
8969,352
8970,352
8971,350
8972,350
8973,348
8974,351
8975,352
8976,349
8977,345
8978,342
8979,342
8980,334
8981,334
8982,334
8983,334
8984,350
8985,351
8986,351
8987,349
8988,347
8989,346
8990,349
8991,351
8992,348
8993,345
8994,342
8995,339
8996,339
8997,335
8998,335
8999,348
9000,351
9001,352
9003,352
9004,351
9005,347
9006,345
9007,345
9008,345
9009,348
9010,345
9011,342
9012,339
9013,339
9014,339
9015,338
9016,338
9017,352
9018,356
9019,357
9020,356
9021,354
9022,350
9023,350
9024,350
9025,350
9026,346
9027,342
9028,337
9029,337
9030,333
9031,333
9032,341
9033,349
9034,353
9035,356
9036,356
9037,355
9038,353
9039,351
9040,356
9041,352
9042,348
9043,344
9044,339
9046,335
9047,335
9048,332
9049,332
9050,346
9051,350
9052,353
9053,354
9054,353
9055,352
9056,352
9057,351
9058,353
9059,350
9060,346
9061,342
9062,337
9063,337
9064,333
9065,333
9066,345
9067,350
9068,352
9069,353
9070,353
9071,350
9072,349
9073,349
9074,352
9075,350
9076,346
9077,343
9078,340
9079,335
9080,335
9081,335
9082,335
9083,350
9084,353
9085,355
9086,355
9088,353
9089,351
9090,351
9091,351
9092,351
9093,348
9094,343
9095,339
9096,335
9097,331
9098,333
9099,333
9100,347
9101,351
9102,353
9103,354
9104,353
9105,351
9106,349
9107,349
9108,353
9109,350
9110,346
9111,341
9112,337
9113,337
9114,333
9115,333
9116,345
9117,349
9118,352
9119,352
9120,352
9121,349
9122,347
9123,349
9124,352
9125,349
9126,346
9127,343
9128,339
9129,339
9131,339
9132,337
9133,345
9134,351
9135,353
9136,355
9137,354
9138,352
9139,352
9140,349
9141,349
9142,350
9143,346
9144,343
9145,339
9146,337
9147,332
9148,332
9149,343
9150,350
9151,354
9152,357
9153,358
9154,356
9155,356
9156,352
9157,353
9158,352
9159,348
9160,343
9161,339
9162,335
9163,335
9164,335
9165,337
9166,337
9167,350
9168,353
9169,355
9170,355
9171,352
9172,352
9174,354
9175,355
9176,351
9177,347
9178,343
9179,338
9180,338
9181,333
9182,337
9183,345
9184,349
9185,351
9186,353
9187,352
9188,350
9189,350
9190,351
9191,354
9192,351
9193,347
9194,343
9195,340
9196,335
9197,335
9198,335
9199,343
9200,348
9201,351
9202,352
9203,351
9204,350
9205,348
9206,348
9207,352
9208,351
9209,348
9210,345
9211,341
9212,341
9213,334
9214,334
9216,334
9217,349
9218,351
9219,353
9220,353
9221,351
9222,349
9223,348
9224,348
9225,352
9226,349
9227,345
9228,342
9229,337
9230,333
9231,333
9232,333
9233,346
9234,350
9235,353
9236,355
9237,354
9238,352
9239,351
9240,351
9241,354
9242,350
9243,346
9244,342
9245,338
9246,338
9247,333
9248,333
9249,344
9250,349
9251,352
9252,353
9253,353
9254,351
9255,351
9256,349
9257,349
9259,350
9260,346
9261,343
9262,343
9263,343
9264,333
9265,336
9266,343
9267,350
9268,353
9269,355
9270,355
9271,353
9272,350
9273,349
9274,352
9275,351
9276,347
9277,343
9278,343
9279,335
9280,331
9281,333
9282,340
9283,348
9284,351
9285,353
9286,354
9287,353
9288,349
9289,348
9290,350
9291,351
9292,347
9293,344
9294,340
9295,336
9296,333
9297,332
9298,337
9299,345
9300,350
9302,353
9303,354
9304,354
9305,352
9306,350
9307,351
9308,354
9309,350
9310,346
9311,342
9312,338
9313,338
9314,338
9315,338
9316,338
9317,349
9318,352
9319,354
9320,354
9321,352
9322,350
9323,350
9324,350
9325,351
9326,346
9327,343
9328,338
9329,338
9330,338
9331,338
9332,341
9333,348
9334,352
9335,354
9336,355
9337,354
9338,351
9339,351
9340,351
9341,353
9342,349
9344,345
9345,340
9346,335
9347,335
9348,333
9349,343
9350,343
9351,351
9352,354
9353,355
9354,355
9355,352
9356,351
9357,353
9358,354
9359,350
9360,346
9361,341
9362,337
9363,337
9364,337
9365,337
9366,344
9367,349
9368,352
9369,353
9370,353
9371,351
9372,351
9373,350
9374,350
9375,350
9376,346
9377,342
9378,338
9379,334
9380,332
9381,332
9382,344
9383,350
9384,353
9385,355
9387,355
9388,353
9389,353
9390,353
9391,352
9392,350
9393,346
9394,342
9395,338
9396,338
9397,331
9398,331
9399,341
9400,349
9401,352
9402,355
9403,356
9404,355
9405,355
9406,350
9407,352
9408,352
9409,348
9410,344
9411,340
9412,335
9413,335
9414,335
9415,335
9416,346
9417,351
9418,354
9419,357
9420,356
9421,354
9422,354
9423,354
9424,356
9425,351
9426,346
9427,342
9428,337
9430,337
9431,331
9432,331
9433,343
9434,348
9435,351
9436,352
9437,353
9438,350
9439,350
9440,350
9441,353
9442,351
9443,347
9444,343
9445,339
9446,333
9447,333
9448,333
9449,343
9450,349
9451,351
9452,352
9453,352
9454,350
9455,347
9456,347
9457,350
9458,350
9459,347
9460,343
9461,340
9462,337
9463,333
9464,333
9465,333
9466,350
9467,352
9468,355
9469,355
9470,353
9472,350
9473,349
9474,350
9475,351
9476,347
9477,344
9478,339
9479,336
9480,336
9481,336
9482,336
9483,346
9484,350
9485,353
9486,354
9487,352
9488,349
9489,349
9490,349
9491,349
9492,348
9493,344
9494,341
9495,337
9496,337
9497,333
9498,337
9499,345
9500,351
9501,354
9502,357
9503,355
9504,353
9505,351
9506,351
9507,351
9508,350
9509,346
9510,342
9511,338
9512,338
9513,331
9515,331
9516,340
9517,349
9518,354
9519,358
9520,359
9521,358
9522,356
9523,355
9524,356
9525,355
9526,350
9527,345
9528,340
9529,334
9530,329
9531,330
9532,335
9533,335
9534,348
9535,351
9536,352
9537,352
9538,350
9539,350
9540,350
9541,354
9542,351
9543,348
9544,343
9545,339
9546,334
9547,334
9548,338
9549,346
9550,351
9551,355
9552,356
9553,355
9554,353
9555,351
9556,351
9558,351
9559,350
9560,346
9561,341
9562,337
9563,333
9564,331
9565,331
9566,331
9567,349
9568,353
9569,354
9570,354
9571,352
9572,351
9573,350
9574,353
9575,352
9576,349
9577,345
9578,339
9579,339
9580,332
9581,333
9582,340
9583,347
9584,349
9585,351
9586,351
9587,349
9588,349
9589,349
9590,349
9591,351
9592,348
9593,345
9594,342
9595,337
9596,335
9597,335
9598,340
9600,348
9601,352
9602,353
9603,354
9604,353
9605,350
9606,348
9607,348
9608,352
9609,348
9610,345
9611,341
9612,338
9613,334
9614,334
9615,334
9616,334
9617,351
9618,353
9619,354
9620,354
9621,351
9622,352
9623,349
9624,351
9625,349
9626,345
9627,341
9628,338
9629,338
9630,332
9631,334
9632,342
9633,350
9634,353
9635,355
9636,355
9637,354
9638,350
9639,350
9640,350
9641,351
9643,348
9644,344
9645,339
9646,335
9647,331
9648,333
9649,341
9650,341
9651,353
9652,356
9653,356
9654,356
9655,352
9656,350
9657,352
9658,353
9659,349
9660,345
9661,341
9662,336
9663,336
9664,332
9665,332
9666,345
9667,349
9668,353
9669,354
9670,354
9671,352
9672,350
9673,351
9674,353
9675,350
9676,346
9677,342
9678,338
9679,338
9680,332
9681,335
9682,344
9683,350
9684,352
9686,354
9687,355
9688,352
9689,352
9690,352
9691,352
9692,351
9693,347
9694,344
9695,339
9696,335
9697,335
9698,335
9699,342
9700,349
9701,353
9702,356
9703,356
9704,355
9705,352
9706,352
9707,352
9708,352
9709,348
9710,343
9711,339
9712,339
9713,331
9714,326
9715,326
9716,345
9717,350
9718,352
9719,353
9720,353
9721,350
9722,349
9723,352
9724,354
9725,351
9726,347
9728,343
9729,338
9730,338
9731,338
9732,338
9733,345
9734,349
9735,351
9736,352
9737,351
9738,349
9739,349
9740,349
9741,352
9742,349
9743,347
9744,344
9745,340
9746,336
9747,336
9748,336
9749,349
9750,350
9751,353
9752,355
9753,354
9754,352
9755,352
9756,347
9757,347
9758,350
9759,347
9760,344
9761,344
9762,344
9763,344
9764,334
9765,334
9766,350
9767,353
9768,356
9769,357
9771,356
9772,353
9773,351
9774,351
9775,354
9776,349
9777,344
9778,340
9779,335
9780,331
9781,331
9782,331
9783,344
9784,350
9785,353
9786,355
9787,355
9788,353
9789,353
9790,353
9791,354
9792,351
9793,347
9794,343
9795,338
9796,338
9797,332
9798,335
9799,344
9800,349
9801,351
9802,352
9803,352
9804,350
9805,347
9806,347
9807,351
9808,349
9809,347
9810,343
9811,339
9812,339
9814,332
9815,335
9816,342
9817,349
9818,352
9819,354
9820,354
9821,352
9822,352
9823,349
9824,349
9825,352
9826,349
9827,345
9828,340
9829,336
9830,332
9831,332
9832,332
9833,332
9834,350
9835,354
9836,355
9837,354
9838,352
9839,351
9840,353
9841,354
9842,351
9843,347
9844,343
9845,338
9846,338
9847,338
9848,338
9849,344
9850,349
9851,353
9852,356
9853,356
9854,354
9856,354
9857,354
9858,354
9859,353
9860,348
9861,344
9862,344
9863,344
9864,344
9865,334
9866,342
9867,348
9868,352
9869,354
9870,355
9871,354
9872,352
9873,352
9874,354
9875,352
9876,348
9877,344
9878,344
9879,344
9880,331
9881,334
9882,334
9883,347
9884,352
9885,355
9886,356
9887,355
9888,355
9889,351
9890,353
9891,353
9892,349
9893,345
9894,340
9895,335
9896,335
9897,332
9899,338
9900,346
9901,350
9902,352
9903,353
9904,352
9905,349
9906,348
9907,351
9908,353
9909,350
9910,347
9911,343
9912,339
9913,339
9914,339
9915,338
9916,346
9917,350
9918,353
9919,355
9920,354
9921,352
9922,350
9923,350
9924,350
9925,352
9926,349
9927,345
9928,340
9929,336
9930,334
9931,334
9932,334
9933,350
9934,353
9935,354
9936,354
9937,352
9938,349
9939,348
9940,348
9942,350
9943,347
9944,344
9945,344
9946,344
9947,344
9948,335
9949,341
9950,349
9951,351
9952,353
9953,353
9954,351
9955,351
9956,347
9957,347
9958,350
9959,346
9960,343
9961,340
9962,337
9963,337
9964,335
9965,335
9966,349
9967,354
9968,357
9969,359
9970,358
9971,355
9972,355
9973,353
9974,354
9975,350
9976,345
9977,341
9978,336
9979,336
9980,331
9981,334
9982,342
9984,348
9985,352
9986,353
9987,354
9988,352
9989,352
9990,351
9991,351
9992,352
9993,349
9994,345
9995,345
9996,345
9997,333
9998,333
9999,345
10000,346
10001,349
10002,351
10003,351
10004,350
10005,350
10006,350
10007,350
10008,352
10009,350
10010,346
10011,343
10012,338
10013,338
10014,338
10015,340
10016,340
10017,348
10018,349
10019,348
10020,347
10021,345
10022,345
10023,347
10024,350
10025,348
10027,346
10028,344
10029,340
10030,337
10031,337
10032,337
10033,349
10034,352
10035,353
10036,353
10037,350
10038,347
10039,345
10040,345
10041,349
10042,347
10043,345
10044,343
10045,339
10046,335
10047,334
10048,338
10049,338
10050,352
10051,355
10052,357
10053,357
10054,354
10055,352
10056,352
10057,352
10058,351
10059,347
10060,342
10061,342
10062,342
10063,342
10064,342
10065,342
10066,347
10067,351
10068,353
10070,354
10071,352
10072,350
10073,350
10074,353
10075,353
10076,350
10077,345
10078,341
10079,337
10080,332
10081,332
10082,332
10083,345
10084,349
10085,352
10086,353
10087,353
10088,350
10089,350
10090,351
10091,354
10092,350
10093,347
10094,343
10095,338
10096,334
10097,334
10098,334
10099,344
10100,349
10101,352
10102,355
10103,355
10104,353
10105,351
10106,352
10107,354
10108,352
10109,348
10110,344
10112,339
10113,333
10114,332
10115,332
10116,342
10117,348
10118,352
10119,354
10120,354
10121,353
10122,350
10123,350
10124,350
10125,353
10126,350
10127,346
10128,346
10129,337
10130,337
10131,334
10132,334
10133,348
10134,351
10135,352
10136,353
10137,352
10138,349
10139,348
10140,350
10141,351
10142,349
10143,346
10144,342
10145,338
10146,338
10147,334
10148,338
10149,346
10150,349
10151,351
10152,351
10153,350
10155,347
10156,346
10157,346
10158,346
10159,349
10160,346
10161,343
10162,339
10163,339
10164,339
10165,337
10166,344
10167,350
10168,352
10169,353
10170,352
10171,350
10172,350
10173,348
10174,350
10175,350
10176,347
10177,343
10178,343
10179,343
10180,332
10181,334
10182,334
10183,348
10184,350
10185,351
10186,351
10187,349
10188,346
10189,346
10190,346
10191,350
10192,347
10193,345
10194,341
10195,337
10196,337
10198,335
10199,341
10200,341
10201,353
10202,356
10203,356
10204,355
10205,352
10206,350
10207,351
10208,353
10209,349
10210,346
10211,341
10212,336
10213,336
10214,336
10215,336
10216,344
10217,348
10218,352
10219,354
10220,354
10221,352
10222,352
10223,352
10224,352
10225,353
10226,349
10227,344
10228,339
10229,339
10230,331
10231,333
10232,341
10233,346
10234,349
10235,350
10236,351
10237,349
10238,347
10240,349
10241,352
10242,352
10243,350
10244,347
10245,344
10246,344
10247,335
10248,335
10249,335
10250,348
10251,350
10252,352
10253,352
10254,350
10255,346
10256,346
10257,346
10258,351
10259,348
10260,345
10261,341
10262,338
10263,334
10264,332
10265,339
10266,347
10267,352
10268,355
10269,356
10270,355
10271,352
10272,351
10273,353
10274,354
10275,350
10276,346
10277,341
10278,337
10279,337
10280,331
10281,335
10283,335
10284,349
10285,353
10286,356
10287,356
10288,354
10289,354
10290,352
10291,355
10292,352
10293,347
10294,343
10295,338
10296,334
10297,334
10298,332
10299,332
10300,347
10301,351
10302,354
10303,354
10304,352
10305,350
10306,351
10307,353
10308,353
10309,349
10310,346
10311,341
10312,337
10313,332
10314,333
10315,333
10316,333
10317,350
10318,352
10319,354
10320,352
10321,350
10322,350
10323,351
10324,353
10326,350
10327,346
10328,343
10329,338
10330,338
10331,334
10332,337
10333,345
10334,349
10335,352
10336,352
10337,352
10338,349
10339,349
10340,349
10341,353
10342,351
10343,348
10344,345
10345,341
10346,341
10347,341
10348,337
10349,343
10350,349
10351,351
10352,352
10353,352
10354,350
10355,350
10356,349
10357,354
10358,351
10359,349
10360,346
10361,341
10362,341
10363,333
10364,335
10365,342
10366,348
10368,352
10369,354
10370,354
10371,353
10372,353
10373,350
10374,350
10375,352
10376,349
10377,346
10378,341
10379,341
10380,341
10381,332
10382,338
10383,338
10384,350
10385,354
10386,354
10387,354
10388,352
10389,352
10390,353
10391,355
10392,351
10393,347
10394,343
10395,338
10396,338
10397,333
10398,335
10399,343
10400,348
10401,351
10402,352
10403,352
10404,350
10405,350
10406,350
10407,354
10408,352
10409,349
10411,345
10412,341
10413,336
10414,333
10415,335
10416,342
10417,349
10418,352
10419,353
10420,353
10421,351
10422,351
10423,351
10424,352
10425,352
10426,349
10427,346
10428,342
10429,342
10430,333
10431,334
10432,341
10433,347
10434,350
10435,352
10436,353
10437,352
10438,348
10439,348
10440,348
10441,353
10442,350
10443,346
10444,343
10445,339
10446,339
10447,333
10448,339
10449,346
10450,350
10451,352
10452,353
10454,352
10455,350
10456,349
10457,351
10458,353
10459,350
10460,347
10461,343
10462,338
10463,335
10464,334
10465,334
10466,345
10467,350
10468,353
10469,355
10470,354
10471,352
10472,350
10473,350
10474,353
10475,351
10476,347
10477,344
10478,344
10479,335
10480,335
10481,333
10482,333
10483,347
10484,351
10485,354
10486,354
10487,353
10488,351
10489,351
10490,354
10491,354
10492,350
10493,346
10494,342
10496,336
10497,332
10498,333
10499,333
10500,333
10501,349
10502,352
10503,353
10504,352
10505,349
10506,350
10507,351
10508,353
10509,350
10510,347
10511,343
10512,339
10513,339
10514,339
10515,338
10516,346
10517,351
10518,353
10519,353
10520,353
10521,350
10522,350
10523,350
10524,353
10525,350
10526,347
10527,343
10528,339
10529,335
10530,335
10531,336
10532,344
10533,349
10534,353
10535,355
10536,355
10537,353
10539,351
10540,351
10541,351
10542,352
10543,348
10544,344
10545,340
10546,340
10547,332
10548,332
10549,341
10550,347
10551,349
10552,350
10553,350
10554,348
10555,345
10556,346
10557,346
10558,351
10559,348
10560,346
10561,342
10562,342
10563,335
10564,336
10565,341
10566,349
10567,353
10568,355
10569,355
10570,353
10571,350
10572,349
10573,350
10574,352
10575,348
10576,345
10577,341
10578,336
10579,336
10580,336
10582,337
10583,347
10584,352
10585,355
10586,358
10587,358
10588,355
10589,353
10590,353
10591,354
10592,352
10593,347
10594,343
10595,341
10596,333
10597,331
10598,331
10599,340
10600,346
10601,349
10602,352
10603,353
10604,352
10605,350
10606,352
10607,352
10608,354
10609,350
10610,347
10611,342
10612,337
10613,333
10614,334
10615,340
10616,347
10617,349
10618,350
10619,349
10620,348
10621,348
10622,348
10624,349
10625,350
10626,348
10627,346
10628,342
10629,339
10630,339
10631,336
10632,342
10633,349
10634,354
10635,357
10636,357
10637,356
10638,352
10639,352
10640,352
10641,353
10642,349
10643,346
10644,341
10645,336
10646,336
10647,331
10648,331
10649,344
10650,349
10651,352
10652,355
10653,354
10654,352
10655,352
10656,351
10657,354
10658,351
10659,347
10660,344
10661,339
10662,339
10663,333
10664,333
10665,344
10667,350
10668,354
10669,356
10670,356
10671,354
10672,354
10673,350
10674,350
10675,351
10676,347
10677,343
10678,339
10679,339
10680,339
10681,331
10682,338
10683,338
10684,351
10685,355
10686,356
10687,356
10688,353
10689,352
10690,352
10691,355
10692,351
10693,346
10694,341
10695,341
10696,341
10697,341
10698,336
10699,343
10700,348
10701,352
10702,354
10703,354
10704,352
10705,350
10706,353
10707,355
10708,352
10710,349
10711,344
10712,339
10713,339
10714,332
10715,332
10716,332
10717,349
10718,352
10719,353
10720,353
10721,351
10722,348
10723,348
10724,353
10725,352
10726,349
10727,345
10728,341
10729,341
10730,333
10731,333
10732,341
10733,348
10734,351
10735,354
10736,354
10737,353
10738,350
10739,350
10740,353
10741,353
10742,349
10743,345
10744,341
10745,336
10746,332
10747,332
10748,338
10749,346
10750,350
10752,353
10753,354
10754,353
10755,350
10756,350
10757,352
10758,354
10759,350
10760,346
10761,342
10762,337
10763,337
10764,333
10765,337
10766,337
10767,349
10768,352
10769,353
10770,353
10771,350
10772,349
10773,351
10774,351
10775,351
10776,348
10777,345
10778,340
10779,336
10780,335
10781,336
10782,336
10783,350
10784,353
10785,355
10786,355
10787,352
10788,350
10789,350
10790,350
10791,351
10792,348
10793,344
10795,340
10796,340
10797,332
10798,333
10799,340
10800,347
10801,350
10802,351
10803,351
10804,350
10805,350
10806,346
10807,350
10808,351
10809,348
10810,346
10811,342
10812,338
10813,338
10814,335
10815,341
10816,348
10817,351
10818,352
10819,351
10820,349
10821,346
10822,346
10823,346
10824,349
10825,346
10826,344
10827,342
10828,339
10829,339
10830,335
10831,335
10832,348
10833,353
10834,355
10835,357
10836,355
10838,352
10839,352
10840,351
10841,351
10842,350
10843,345
10844,342
10845,337
10846,333
10847,333
10848,333
10849,341
10850,348
10851,353
10852,356
10853,357
10854,355
10855,353
10856,353
10857,355
10858,353
10859,349
10860,345
10861,340
10862,335
10863,330
10864,331
10865,337
10866,337
10867,350
10868,353
10869,355
10870,354
10871,352
10872,352
10873,354
10874,355
10875,351
10876,347
10877,342
10878,337
10880,337
10881,337
10882,336
10883,344
10884,348
10885,349
10886,350
10887,349
10888,347
10889,347
10890,347
10891,352
10892,350
10893,348
10894,345
10895,342
10896,342
10897,342
10898,342
10899,342
10900,350
10901,352
10902,353
10903,352
10904,350
10905,348
10906,348
10907,348
10908,350
10909,347
10910,343
10911,340
10912,336
10913,333
10914,333
10915,342
10916,350
10917,354
10918,357
10919,358
10920,357
10921,353
10923,351
10924,351
10925,352
10926,347
10927,343
10928,338
10929,334
10930,334
10931,331
10932,331
10933,346
10934,351
10935,354
10936,355
10937,355
10938,353
10939,352
10940,353
10941,354
10942,350
10943,346
10944,341
10945,336
10946,336
10947,331
10948,339
10949,344
10950,349
10951,352
10952,354
10953,354
10954,352
10955,352
10956,352
10957,354
10958,351
10959,347
10960,343
10961,338
10962,338
10963,332
10964,334
10966,334
10967,349
10968,352
10969,354
10970,354
10971,352
10972,350
10973,350
10974,353
10975,351
10976,347
10977,344
10978,340
10979,340
10980,340
10981,333
10982,339
10983,348
10984,351
10985,353
10986,354
10987,352
10988,350
10989,350
10990,350
10991,354
10992,350
10993,346
10994,342
10995,338
10996,338
10997,338
10998,338
10999,345
11000,350
11001,352
11002,352
11003,352
11004,349
11005,349
11006,349
11008,353
11009,350
11010,347
11011,344
11012,340
11013,340
11014,333
11015,337
11016,345
11017,350
11018,353
11019,354
11020,353
11021,351
11022,349
11023,350
11024,350
11025,350
11026,347
11027,343
11028,339
11029,339
11030,337
11031,337
11032,337
11033,348
11034,351
11035,352
11036,352
11037,351
11038,348
11039,348
11040,352
11041,351
11042,347
11043,344
11044,340
11045,337
11046,338
11047,333
11048,333
11049,333
11051,348
11052,350
11053,350
11054,348
11055,346
11056,346
11057,346
11058,350
11059,347
11060,345
11061,342
11062,339
11063,339
11064,339
11065,339
11066,349
11067,352
11068,355
11069,357
11070,356
11071,353
11072,353
11073,352
11074,357
11075,350
11076,346
11077,342
11078,337
11079,337
11080,332
11081,334
11082,342
11083,348
11084,352
11085,354
11086,355
11087,353
11088,350
11089,350
11090,354
11091,353
11092,349
11094,345
11095,340
11096,340
11097,340
11098,340
11099,339
11100,347
11101,351
11102,353
11103,355
11104,354
11105,351
11106,352
11107,354
11108,354
11109,351
11110,346
11111,342
11112,336
11113,336
11114,336
11115,336
11116,346
11117,349
11118,352
11119,352
11120,351
11121,349
11122,347
11123,350
11124,352
11125,349
11126,346
11127,342
11128,338
11129,335
11130,334
11131,338
11132,346
11133,350
11134,354
11136,355
11137,355
11138,352
11139,350
11140,350
11141,353
11142,351
11143,347
11144,343
11145,338
11146,334
11147,334
11148,334
11149,342
11150,348
11151,352
11152,355
11153,355
11154,353
11155,353
11156,353
11157,354
11158,353
11159,349
11160,345
11161,345
11162,335
11163,331
11164,331
11165,339
11166,347
11167,350
11168,353
11169,353
11170,352
11171,350
11172,350
11173,350
11174,354
11175,351
11176,347
11177,344
11179,339
11180,339
11181,339
11182,338
11183,345
11184,349
11185,351
11186,352
11187,352
11188,349
11189,349
11190,351
11191,351
11192,351
11193,347
11194,344
11195,340
11196,340
11197,334
11198,342
11199,345
11200,350
11201,353
11202,354
11203,353
11204,350
11205,350
11206,349
11207,349
11208,350
11209,347
11210,343
11211,340
11212,340
11213,333
11214,335
11215,343
11216,349
11217,354
11218,355
11219,355
11220,354
11222,354
11223,350
11224,353
11225,352
11226,348
11227,344
11228,339
11229,335
11230,335
11231,335
11232,337
11233,337
11234,348
11235,351
11236,352
11237,351
11238,349
11239,348
11240,351
11241,353
11242,350
11243,346
11244,342
11245,338
11246,338
11247,333
11248,333
11249,345
11250,349
11251,352
11252,354
11253,353
11254,351
11255,351
11256,351
11257,351
11258,352
11259,347
11260,344
11261,339
11262,339
11264,339
11265,339
11266,339
11267,348
11268,352
11269,353
11270,354
11271,352
11272,350
11273,350
11274,353
11275,352
11276,349
11277,345
11278,341
11279,341
11280,341
11281,341
11282,341
11283,349
11284,352
11285,354
11286,354
11287,352
11288,349
11289,349
11290,351
11291,351
11292,348
11293,344
11294,340
11295,336
11296,331
11297,332
11298,332
11299,347
11300,351
11301,353
11302,353
11303,353
11304,350
11305,350
11307,350
11308,353
11309,349
11310,346
11311,342
11312,338
11313,338
11314,333
11315,337
11316,345
11317,349
11318,352
11319,353
11320,352
11321,350
11322,348
11323,348
11324,348
11325,350
11326,347
11327,343
11328,339
11329,339
11330,334
11331,335
11332,343
11333,349
11334,353
11335,354
11336,354
11337,353
11338,353
11339,349
11340,352
11341,351
11342,347
11343,344
11344,339
11345,339
11346,331
11347,332
11348,332
11350,347
11351,351
11352,354
11353,354
11354,353
11355,350
11356,350
11357,350
11358,353
11359,349
11360,345
11361,342
11362,336
11363,336
11364,332
11365,337
11366,346
11367,351
11368,355
11369,356
11370,356
11371,353
11372,353
11373,352
11374,354
11375,350
11376,346
11377,341
11378,337
11379,337
11380,331
11381,333
11382,341
11383,348
11384,352
11385,354
11386,355
11387,353
11388,351
11389,352
11390,355
11392,353
11393,349
11394,345
11395,345
11396,345
11397,333
11398,333
11399,333
11400,349
11401,352
11402,353
11403,353
11404,352
11405,352
11406,352
11407,352
11408,351
11409,348
11410,344
11411,340
11412,340
11413,332
11414,332
11415,332
11416,332
11417,350
11418,353
11419,353
11420,352
11421,350
11422,350
11423,350
11424,353
11425,350
11426,346
11427,342
11428,338
11429,338
11430,332
11431,340
11432,344
11433,348
11435,352
11436,353
11437,352
11438,351
11439,353
11440,351
11441,354
11442,351
11443,347
11444,344
11445,339
11446,339
11447,333
11448,333
11449,333
11450,349
11451,353
11452,355
11453,356
11454,354
11455,354
11456,352
11457,354
11458,353
11459,349
11460,345
11461,340
11462,340
11463,332
11464,332
11465,340
11466,348
11467,350
11468,352
11469,352
11470,351
11471,351
11472,349
11473,349
11474,353
11475,350
11476,346
11478,343
11479,339
11480,335
11481,334
11482,341
11483,348
11484,352
11485,354
11486,354
11487,352
11488,349
11489,349
11490,350
11491,351
11492,348
11493,345
11494,341
11495,338
11496,338
11497,338
11498,338
11499,338
11500,350
11501,352
11502,353
11503,353
11504,351
11505,348
11506,349
11507,352
11508,350
11509,346
11510,343
11511,339
11512,332
11513,332
11514,335
11515,335
11516,348
11517,351
11518,354
11520,353
11521,352
11522,352
11523,352
11524,352
11525,351
11526,348
11527,345
11528,340
11529,336
11530,332
11531,333
11532,333
11533,348
11534,351
11535,353
11536,354
11537,353
11538,353
11539,350
11540,350
11541,354
11542,350
11543,346
11544,342
11545,342
11546,333
11547,333
11548,338
11549,346
11550,350
11551,353
11552,354
11553,354
11554,351
11555,352
11556,351
11557,353
11558,350
11559,346
11560,342
11561,338
11563,338
11564,333
11565,336
11566,336
11567,350
11568,352
11569,353
11570,351
11571,349
11572,346
11573,347
11574,347
11575,350
11576,346
11577,343
11578,340
11579,336
11580,336
11581,337
11582,345
11583,353
11584,355
11585,357
11586,356
11587,353
11588,350
11589,350
11590,351
11591,351
11592,348
11593,343
11594,339
11595,335
11596,331
11597,331
11598,340
11599,340
11600,352
11601,354
11602,355
11603,354
11604,350
11606,350
11607,351
11608,352
11609,349
11610,346
11611,341
11612,337
11613,337
11614,332
11615,332
11616,345
11617,349
11618,352
11619,353
11620,353
11621,350
11622,350
11623,350
11624,350
11625,352
11626,348
11627,344
11628,339
11629,339
11630,333
11631,336
11632,344
11633,350
11634,353
11635,355
11636,355
11637,353
11638,353
11639,351
11640,355
11641,353
11642,349
11643,345
11644,340
11645,340
11646,332
11648,333
11649,340
11650,347
11651,349
11652,351
11653,351
11654,349
11655,349
11656,349
11657,350
11658,352
11659,349
11660,347
11661,344
11662,339
11663,334
11664,336
11665,336
11666,350
11667,354
11668,356
11669,356
11670,355
11671,352
11672,350
11673,351
11674,352
11675,348
11676,344
11677,339
11678,336
11679,336
11680,336
11681,336
11682,336
11683,351
11684,355
11685,357
11686,357
11687,355
11688,355
11689,355
11691,355
11692,351
11693,347
11694,342
11695,337
11696,337
11697,337
11698,337
11699,342
11700,349
11701,353
11702,355
11703,355
11704,353
11705,351
11706,351
11707,351
11708,353
11709,349
11710,345
11711,345
11712,335
11713,335
11714,335
11715,335
11716,349
11717,352
11718,354
11719,354
11720,353
11721,350
11722,349
11723,349
11724,353
11725,349
11726,346
11727,342
11728,337
11729,333
11730,332
11731,337
11732,346
11734,351
11735,356
11736,358
11737,358
11738,355
11739,354
11740,354
11741,357
11742,353
11743,348
11744,343
11745,338
11746,333
11747,331
11748,333
11749,333
11750,350
11751,353
11752,357
11753,357
11754,355
11755,354
11756,354
11757,354
11758,354
11759,349
11760,344
11761,343
11762,343
11763,343
11764,332
11765,332
11766,346
11767,350
11768,352
11769,353
11770,351
11771,349
11772,350
11773,350
11774,353
11776,350
11777,346
11778,342
11779,338
11780,338
11781,338
11782,338
11783,338
11784,351
11785,352
11786,352
11787,351
11788,347
11789,347
11790,347
11791,352
11792,350
11793,347
11794,343
11795,339
11796,335
11797,335
11798,335
11799,346
11800,351
11801,354
11802,355
11803,355
11804,353
11805,352
11806,353
11807,355
11808,352
11809,348
11810,343
11811,338
11812,334
11813,331
11814,334
11815,334
11816,348
11817,350
11819,352
11820,352
11821,350
11822,350
11823,350
11824,350
11825,352
11826,349
11827,346
11828,341
11829,341
11830,333
11831,333
11832,333
11833,349
11834,352
11835,355
11836,356
11837,355
11838,353
11839,353
11840,355
11841,354
11842,350
11843,346
11844,341
11845,336
11846,336
11847,331
11848,331
11849,345
11850,349
11851,352
11852,353
11853,353
11854,350
11855,350
11856,353
11857,355
11858,352
11859,348
11860,344
11862,339
11863,335
11864,333
11865,337
11866,344
11867,349
11868,352
11869,354
11870,354
11871,351
11872,350
11873,350
11874,353
11875,351
11876,347
11877,344
11878,339
11879,335
11880,335
11881,334
11882,340
11883,347
11884,350
11885,352
11886,352
11887,351
11888,348
11889,349
11890,349
11891,352
11892,349
11893,345
11894,340
11895,340
11896,333
11897,333
11898,333
11899,347
11900,349
11901,351
11902,351
11904,350
11905,347
11906,346
11907,346
11908,351
11909,348
11910,346
11911,342
11912,338
11913,338
11914,338
11915,338
11916,348
11917,351
11918,352
11919,352
11920,351
11921,348
11922,348
11923,348
11924,352
11925,348
11926,346
11927,343
11928,339
11929,339
11930,335
11931,337
11932,337
11933,352
11934,355
11935,357
11936,356
11937,353
11938,350
11939,351
11940,353
11941,351
11942,347
11943,343
11944,338
11945,334
11947,333
11948,333
11949,340
11950,348
11951,351
11952,354
11953,354
11954,353
11955,351
11956,351
11957,353
11958,354
11959,350
11960,346
11961,342
11962,337
11963,333
11964,333
11965,333
11966,333
11967,351
11968,353
11969,354
11970,354
11971,351
11972,351
11973,351
11974,354
11975,350
11976,346
11977,342
11978,338
11979,338
11980,332
11981,336
11982,344
11983,348
11984,350
11985,351
11986,351
11987,348
11988,348
11990,350
11991,350
11992,351
11993,348
11994,345
11995,340
11996,336
11997,334
11998,336
11999,336
12000,348
12001,350
12002,351
12003,351
12004,349
12005,349
12006,347
12007,347
12008,350
12009,347
12010,344
12011,341
12012,341
12013,336
12014,335
12015,341
12016,348
12017,352
12018,355
12019,355
12020,354
12021,352
12022,351
12023,354
12024,354
12025,350
12026,346
12027,341
12028,336
12029,331
12030,332
12032,337
12033,345
12034,349
12035,353
12036,355
12037,354
12038,352
12039,352
12040,352
12041,356
12042,351
12043,347
12044,343
12045,338
12046,338
12047,332
12048,332
12049,344
12050,349
12051,352
12052,354
12053,354
12054,352
12055,352
12056,353
12057,353
12058,352
12059,348
12060,344
12061,344
12062,344
12063,332
12064,332
12065,332
12066,348
12067,351
12068,352
12069,353
12070,352
12071,349
12072,351
12073,353
12075,353
12076,350
12077,345
12078,340
12079,337
12080,337
12081,333
12082,333
12083,347
12084,351
12085,353
12086,354
12087,353
12088,350
12089,350
12090,350
12091,354
12092,350
12093,347
12094,343
12095,338
12096,331
12097,332
12098,337
12099,344
12100,347
12101,349
12102,349
12103,347
12104,346
12105,345
12106,348
12107,351
12108,350
12109,348
12110,345
12111,341
12112,338
12113,337
12114,339
12115,347
12116,351
12118,353
12119,353
12120,351
12121,349
12122,346
12123,346
12124,350
12125,349
12126,346
12127,343
12128,339
12129,339
12130,339
12131,339
12132,344
12133,351
12134,353
12135,355
12136,355
12137,352
12138,349
12139,349
12140,351
12141,350
12142,347
12143,343
12144,339
12145,335
12146,335
12147,333
12148,339
12149,339
12150,352
12151,355
12152,356
12153,355
12154,352
12155,351
12156,353
12157,354
12158,351
12160,346
12161,341
12162,337
12163,337
12164,331
12165,336
12166,344
12167,348
12168,351
12169,351
12170,351
12171,348
12172,348
12173,350
12174,350
12175,351
12176,348
12177,344
